1,0.50205548,0.1476469,0.31664616,1.1688741,0.64865752,0.40473265,1.2050062,0.59824137,0.32800826,1.668206,0.48223006,0.27482721,-0.70630453,0.98754646,0.50112303,2.2487902,0.31930911,0.6303957,1.0880765,0.5264121,-0.36808017,0.08725314,0.47041178,1.3510633,0.47527619,0.6692266,1.1949282,0.20303954,0.46679299,0.15058441,-0.15738917,0.65656714,1.2571379,0.18824682,0.5347352,2.0412979,0.58597594,0.99970742,1.6163364,0.29476758,0.5807386,0.38123865,0.31452914,0.31421954,0.65173918,0.5358112,1.4684175,1.450874,0.99311088,0.12377605,1.814836,1.1685633,2.1130509,-0.19441323,0.73059393,0.59401433,2.0394327,0.46737906,0.64275558,0.50691007,0.59591868,1.2215121,0.7809784,0.28914124,-0.022584248,0.18753379,0.16455766,0.41601568,1.1593518,0.9548887,0.26158131,0.54309888,0.50871874,-0.1743352,0.54278954,0.56688351,0.78922775,0.068846565,0.92756523,0.34263832,1.2106339,0.59313603,0.70370874,2.1667159,0.91899571,1.3971093,0.99292711,0.59782907,0.98308038,1.3084559,0.55686579,0.73543754,0.41500979,0.43707074,1.2259204,0.58127681,2.6890171,0.19767692,0.17950028,0.073124179
2,0.50205548,0.1476469,0.31664616,1.1688741,0.64865752,0.40473265,1.2050062,0.59824137,0.32800826,1.668206,0.48223006,0.27482721,-0.70630453,0.98754646,0.50112303,2.2487902,0.31930911,0.6303957,1.0880765,0.5264121,-0.36808017,0.08725314,0.47041178,1.3510633,0.47527619,0.6692266,1.1949282,0.20303954,0.46679299,0.15058441,-0.15738917,0.65656714,1.2571379,0.18824682,0.5347352,2.0412979,0.58597594,0.99970742,1.6163364,0.29476758,0.5807386,0.38123865,0.31452914,0.31421954,0.65173918,0.5358112,1.4684175,1.450874,0.99311088,0.12377605,1.814836,1.1685633,2.1130509,-0.19441323,0.73059393,0.59401433,2.0394327,0.46737906,0.64275558,0.50691007,0.59591868,1.2215121,0.7809784,0.28914124,-0.022584248,0.18753379,0.16455766,0.41601568,1.1593518,0.9548887,0.26158131,0.54309888,0.50871874,-0.1743352,0.54278954,0.56688351,0.78922775,0.068846565,0.92756523,0.34263832,1.2106339,0.59313603,0.70370874,2.1667159,0.91899571,1.3971093,0.99292711,0.59782907,0.98308038,1.3084559,0.55686579,0.73543754,0.41500979,0.43707074,1.2259204,0.58127681,2.6890171,0.19767692,0.17950028,0.073124179
3,0.50205548,0.1476469,0.31664616,1.1688741,0.64865752,0.40473265,1.2050062,0.59824137,0.32800826,1.668206,0.48223006,0.27482721,-0.70630453,0.98754646,0.50112303,2.2487902,0.31930911,0.6303957,1.0880765,0.5264121,-0.36808017,0.08725314,0.47041178,1.3510633,0.47527619,0.6692266,1.1949282,0.20303954,0.46679299,0.15058441,-0.15738917,0.65656714,1.2571379,0.18824682,0.5347352,2.0412979,0.58597594,0.99970742,1.6163364,0.29476758,0.5807386,0.38123865,0.31452914,0.31421954,0.65173918,0.5358112,1.4684175,1.450874,0.99311088,0.12377605,1.814836,1.1685633,2.1130509,-0.19441323,0.73059393,0.59401433,2.0394327,0.46737906,0.64275558,0.50691007,0.59591868,1.2215121,0.7809784,0.28914124,-0.022584248,0.18753379,0.16455766,0.41601568,1.1593518,0.9548887,0.26158131,0.54309888,0.50871874,-0.1743352,0.54278954,0.56688351,0.78922775,0.068846565,0.92756523,0.34263832,1.2106339,0.59313603,0.70370874,2.1667159,0.91899571,1.3971093,0.99292711,0.59782907,0.98308038,1.3084559,0.55686579,0.73543754,0.41500979,0.43707074,1.2259204,0.58127681,2.6890171,0.19767692,0.17950028,0.073124179
4,0.50205548,0.1476469,0.31664616,1.1688741,0.64865752,0.40473265,1.2050062,0.59824137,0.32800826,1.668206,0.48223006,0.27482721,-0.70630453,0.98754646,0.50112303,2.2487902,0.31930911,0.6303957,1.0880765,0.5264121,-0.36808017,0.08725314,0.47041178,1.3510633,0.47527619,0.6692266,1.1949282,0.20303954,0.46679299,0.15058441,-0.15738917,0.65656714,1.2571379,0.18824682,0.5347352,2.0412979,0.58597594,0.99970742,1.6163364,0.29476758,0.5807386,0.38123865,0.31452914,0.31421954,0.65173918,0.5358112,1.4684175,1.450874,0.99311088,0.12377605,1.814836,1.1685633,2.1130509,-0.19441323,0.73059393,0.59401433,2.0394327,0.46737906,0.64275558,0.50691007,0.59591868,1.2215121,0.7809784,0.28914124,-0.022584248,0.18753379,0.16455766,0.41601568,1.1593518,0.9548887,0.26158131,0.54309888,0.50871874,-0.1743352,0.54278954,0.56688351,0.78922775,0.068846565,0.92756523,0.34263832,1.2106339,0.59313603,0.70370874,2.1667159,0.91899571,1.3971093,0.99292711,0.59782907,0.98308038,1.3084559,0.55686579,0.73543754,0.41500979,0.43707074,1.2259204,0.58127681,2.6890171,0.19767692,0.17950028,0.073124179
5,0.50205548,0.1476469,0.31664616,1.1688741,0.64865752,0.40473265,1.2050062,0.59824137,0.32800826,1.668206,0.48223006,0.27482721,-0.70630453,0.98754646,0.50112303,2.2487902,0.31930911,0.6303957,1.0880765,0.5264121,-0.36808017,0.08725314,0.47041178,1.3510633,0.47527619,0.6692266,1.1949282,0.20303954,0.46679299,0.15058441,-0.15738917,0.65656714,1.2571379,0.18824682,0.5347352,2.0412979,0.58597594,0.99970742,1.6163364,0.29476758,0.5807386,0.38123865,0.31452914,0.31421954,0.65173918,0.5358112,1.4684175,1.450874,0.99311088,0.12377605,1.814836,1.1685633,2.1130509,-0.19441323,0.73059393,0.59401433,2.0394327,0.46737906,0.64275558,0.50691007,0.59591868,1.2215121,0.7809784,0.28914124,-0.022584248,0.18753379,0.16455766,0.41601568,1.1593518,0.9548887,0.26158131,0.54309888,0.50871874,-0.1743352,0.54278954,0.56688351,0.78922775,0.068846565,0.92756523,0.34263832,1.2106339,0.59313603,0.70370874,2.1667159,0.91899571,1.3971093,0.99292711,0.59782907,0.98308038,1.3084559,0.55686579,0.73543754,0.41500979,0.43707074,1.2259204,0.58127681,2.6890171,0.19767692,0.17950028,0.073124179
6,0.50205548,0.1476469,0.31664616,1.1688741,0.64865752,0.40473265,1.2050062,0.59824137,0.32800826,1.668206,0.48223006,0.27482721,-0.70630453,0.98754646,0.50112303,2.2487902,0.31930911,0.6303957,1.0880765,0.5264121,-0.36808017,0.08725314,0.47041178,1.3510633,0.47527619,0.6692266,1.1949282,0.20303954,0.46679299,0.15058441,-0.15738917,0.65656714,1.2571379,0.18824682,0.5347352,2.0412979,0.58597594,0.99970742,1.6163364,0.29476758,0.5807386,0.38123865,0.31452914,0.31421954,0.65173918,0.5358112,1.4684175,1.450874,0.99311088,0.12377605,1.814836,1.1685633,2.1130509,-0.19441323,0.73059393,0.59401433,2.0394327,0.46737906,0.64275558,0.50691007,0.59591868,1.2215121,0.7809784,0.28914124,-0.022584248,0.18753379,0.16455766,0.41601568,1.1593518,0.9548887,0.26158131,0.54309888,0.50871874,-0.1743352,0.54278954,0.56688351,0.78922775,0.068846565,0.92756523,0.34263832,1.2106339,0.59313603,0.70370874,2.1667159,0.91899571,1.3971093,0.99292711,0.59782907,0.98308038,1.3084559,0.55686579,0.73543754,0.41500979,0.43707074,1.2259204,0.58127681,2.6890171,0.19767692,0.17950028,0.073124179
7,0.50205548,0.1476469,0.31664616,1.1688741,0.64865752,0.40473265,1.2050062,0.59824137,0.32800826,1.668206,0.48223006,0.27482721,-0.70630453,0.98754646,0.50112303,2.2487902,0.31930911,0.6303957,1.0880765,0.5264121,-0.36808017,0.08725314,0.47041178,1.3510633,0.47527619,0.6692266,1.1949282,0.20303954,0.46679299,0.15058441,-0.15738917,0.65656714,1.2571379,0.18824682,0.5347352,2.0412979,0.58597594,0.99970742,1.6163364,0.29476758,0.5807386,0.38123865,0.31452914,0.31421954,0.65173918,0.5358112,1.4684175,1.450874,0.99311088,0.12377605,1.814836,1.1685633,2.1130509,-0.19441323,0.73059393,0.59401433,2.0394327,0.46737906,0.64275558,0.50691007,0.59591868,1.2215121,0.7809784,0.28914124,-0.022584248,0.18753379,0.16455766,0.41601568,1.1593518,0.9548887,0.26158131,0.54309888,0.50871874,-0.1743352,0.54278954,0.56688351,0.78922775,0.068846565,0.92756523,0.34263832,1.2106339,0.59313603,0.70370874,2.1667159,0.91899571,1.3971093,0.99292711,0.59782907,0.98308038,1.3084559,0.55686579,0.73543754,0.41500979,0.43707074,1.2259204,0.58127681,2.6890171,0.19767692,0.17950028,0.073124179
8,0.50205548,0.1476469,0.31664616,1.1688741,0.64865752,0.40473265,1.2050062,0.59824137,0.32800826,1.668206,0.48223006,0.27482721,-0.70630453,0.98754646,0.50112303,2.2487902,0.31930911,0.6303957,1.0880765,0.5264121,-0.36808017,0.08725314,0.47041178,1.3510633,0.47527619,0.6692266,1.1949282,0.20303954,0.46679299,0.15058441,-0.15738917,0.65656714,1.2571379,0.18824682,0.5347352,2.0412979,0.58597594,0.99970742,1.6163364,0.29476758,0.5807386,0.38123865,0.31452914,0.31421954,0.65173918,0.5358112,1.4684175,1.450874,0.99311088,0.12377605,1.814836,1.1685633,2.1130509,-0.19441323,0.73059393,0.59401433,2.0394327,0.46737906,0.64275558,0.50691007,0.59591868,1.2215121,0.7809784,0.28914124,-0.022584248,0.18753379,0.16455766,0.41601568,1.1593518,0.9548887,0.26158131,0.54309888,0.50871874,-0.1743352,0.54278954,0.56688351,0.78922775,0.068846565,0.92756523,0.34263832,1.2106339,0.59313603,0.70370874,2.1667159,0.91899571,1.3971093,0.99292711,0.59782907,0.98308038,1.3084559,0.55686579,0.73543754,0.41500979,0.43707074,1.2259204,0.58127681,2.6890171,0.19767692,0.17950028,0.073124179
9,0.50205548,0.1476469,0.31664616,1.1688741,0.64865752,0.40473265,1.2050062,0.59824137,0.32800826,1.668206,0.48223006,0.27482721,-0.70630453,0.98754646,0.50112303,2.2487902,0.31930911,0.6303957,1.0880765,0.5264121,-0.36808017,0.08725314,0.47041178,1.3510633,0.47527619,0.6692266,1.1949282,0.20303954,0.46679299,0.15058441,-0.15738917,0.65656714,1.2571379,0.18824682,0.5347352,2.0412979,0.58597594,0.99970742,1.6163364,0.29476758,0.5807386,0.38123865,0.31452914,0.31421954,0.65173918,0.5358112,1.4684175,1.450874,0.99311088,0.12377605,1.814836,1.1685633,2.1130509,-0.19441323,0.73059393,0.59401433,2.0394327,0.46737906,0.64275558,0.50691007,0.59591868,1.2215121,0.7809784,0.28914124,-0.022584248,0.18753379,0.16455766,0.41601568,1.1593518,0.9548887,0.26158131,0.54309888,0.50871874,-0.1743352,0.54278954,0.56688351,0.78922775,0.068846565,0.92756523,0.34263832,1.2106339,0.59313603,0.70370874,2.1667159,0.91899571,1.3971093,0.99292711,0.59782907,0.98308038,1.3084559,0.55686579,0.73543754,0.41500979,0.43707074,1.2259204,0.58127681,2.6890171,0.19767692,0.17950028,0.073124179
10,0.50205548,0.1476469,0.31664616,1.1688741,0.64865752,0.40473265,1.2050062,0.59824137,0.32800826,1.668206,0.48223006,0.27482721,-0.70630453,0.98754646,0.50112303,2.2487902,0.31930911,0.6303957,1.0880765,0.5264121,-0.36808017,0.08725314,0.47041178,1.3510633,0.47527619,0.6692266,1.1949282,0.20303954,0.46679299,0.15058441,-0.15738917,0.65656714,1.2571379,0.18824682,0.5347352,2.0412979,0.58597594,0.99970742,1.6163364,0.29476758,0.5807386,0.38123865,0.31452914,0.31421954,0.65173918,0.5358112,1.4684175,1.450874,0.99311088,0.12377605,1.814836,1.1685633,2.1130509,-0.19441323,0.73059393,0.59401433,2.0394327,0.46737906,0.64275558,0.50691007,0.59591868,1.2215121,0.7809784,0.28914124,-0.022584248,0.18753379,0.16455766,0.41601568,1.1593518,0.9548887,0.26158131,0.54309888,0.50871874,-0.1743352,0.54278954,0.56688351,0.78922775,0.068846565,0.92756523,0.34263832,1.2106339,0.59313603,0.70370874,2.1667159,0.91899571,1.3971093,0.99292711,0.59782907,0.98308038,1.3084559,0.55686579,0.73543754,0.41500979,0.43707074,1.2259204,0.58127681,2.6890171,0.19767692,0.17950028,0.073124179
11,0.50205548,0.1476469,0.31664616,1.1688741,0.64865752,0.40473265,1.2050062,0.59824137,0.32800826,1.668206,0.48223006,0.27482721,-0.70630453,0.98754646,0.50112303,2.2487902,0.31930911,0.6303957,1.0880765,0.5264121,-0.36808017,0.08725314,0.47041178,1.3510633,0.47527619,0.6692266,1.1949282,0.20303954,0.46679299,0.15058441,-0.15738917,0.65656714,1.2571379,0.18824682,0.5347352,2.0412979,0.58597594,0.99970742,1.6163364,0.29476758,0.5807386,0.38123865,0.31452914,0.31421954,0.65173918,0.5358112,1.4684175,1.450874,0.99311088,0.12377605,1.814836,1.1685633,2.1130509,-0.19441323,0.73059393,0.59401433,2.0394327,0.46737906,0.64275558,0.50691007,0.59591868,1.2215121,0.7809784,0.28914124,-0.022584248,0.18753379,0.16455766,0.41601568,1.1593518,0.9548887,0.26158131,0.54309888,0.50871874,-0.1743352,0.54278954,0.56688351,0.78922775,0.068846565,0.92756523,0.34263832,1.2106339,0.59313603,0.70370874,2.1667159,0.91899571,1.3971093,0.99292711,0.59782907,0.98308038,1.3084559,0.55686579,0.73543754,0.41500979,0.43707074,1.2259204,0.58127681,2.6890171,0.19767692,0.17950028,0.073124179
12,0.50205548,0.1476469,0.31664616,1.1688741,0.64865752,0.40473265,1.2050062,0.59824137,0.32800826,1.668206,0.48223006,0.27482721,-0.70630453,0.98754646,0.50112303,2.2487902,0.31930911,0.6303957,1.0880765,0.5264121,-0.36808017,0.08725314,0.47041178,1.3510633,0.47527619,0.6692266,1.1949282,0.20303954,0.46679299,0.15058441,-0.15738917,0.65656714,1.2571379,0.18824682,0.5347352,2.0412979,0.58597594,0.99970742,1.6163364,0.29476758,0.5807386,0.38123865,0.31452914,0.31421954,0.65173918,0.5358112,1.4684175,1.450874,0.99311088,0.12377605,1.814836,1.1685633,2.1130509,-0.19441323,0.73059393,0.59401433,2.0394327,0.46737906,0.64275558,0.50691007,0.59591868,1.2215121,0.7809784,0.28914124,-0.022584248,0.18753379,0.16455766,0.41601568,1.1593518,0.9548887,0.26158131,0.54309888,0.50871874,-0.1743352,0.54278954,0.56688351,0.78922775,0.068846565,0.92756523,0.34263832,1.2106339,0.59313603,0.70370874,2.1667159,0.91899571,1.3971093,0.99292711,0.59782907,0.98308038,1.3084559,0.55686579,0.73543754,0.41500979,0.43707074,1.2259204,0.58127681,2.6890171,0.19767692,0.17950028,0.073124179
13,0.50205548,0.1476469,0.31664616,1.1688741,0.64865752,0.40473265,1.2050062,0.59824137,0.32800826,1.668206,0.48223006,0.27482721,-0.70630453,0.98754646,0.50112303,2.2487902,0.31930911,0.6303957,1.0880765,0.5264121,-0.36808017,0.08725314,0.47041178,1.3510633,0.47527619,0.6692266,1.1949282,0.20303954,0.46679299,0.15058441,-0.15738917,0.65656714,1.2571379,0.18824682,0.5347352,2.0412979,0.58597594,0.99970742,1.6163364,0.29476758,0.5807386,0.38123865,0.31452914,0.31421954,0.65173918,0.5358112,1.4684175,1.450874,0.99311088,0.12377605,1.814836,1.1685633,2.1130509,-0.19441323,0.73059393,0.59401433,2.0394327,0.46737906,0.64275558,0.50691007,0.59591868,1.2215121,0.7809784,0.28914124,-0.022584248,0.18753379,0.16455766,0.41601568,1.1593518,0.9548887,0.26158131,0.54309888,0.50871874,-0.1743352,0.54278954,0.56688351,0.78922775,0.068846565,0.92756523,0.34263832,1.2106339,0.59313603,0.70370874,2.1667159,0.91899571,1.3971093,0.99292711,0.59782907,0.98308038,1.3084559,0.55686579,0.73543754,0.41500979,0.43707074,1.2259204,0.58127681,2.6890171,0.19767692,0.17950028,0.073124179
14,0.50205548,0.1476469,0.31664616,1.1688741,0.64865752,0.40473265,1.2050062,0.59824137,0.32800826,1.668206,0.48223006,0.27482721,-0.70630453,0.98754646,0.50112303,2.2487902,0.31930911,0.6303957,1.0880765,0.5264121,-0.36808017,0.08725314,0.47041178,1.3510633,0.47527619,0.6692266,1.1949282,0.20303954,0.46679299,0.15058441,-0.15738917,0.65656714,1.2571379,0.18824682,0.5347352,2.0412979,0.58597594,0.99970742,1.6163364,0.29476758,0.5807386,0.38123865,0.31452914,0.31421954,0.65173918,0.5358112,1.4684175,1.450874,0.99311088,0.12377605,1.814836,1.1685633,2.1130509,-0.19441323,0.73059393,0.59401433,2.0394327,0.46737906,0.64275558,0.50691007,0.59591868,1.2215121,0.7809784,0.28914124,-0.022584248,0.18753379,0.16455766,0.41601568,1.1593518,0.9548887,0.26158131,0.54309888,0.50871874,-0.1743352,0.54278954,0.56688351,0.78922775,0.068846565,0.92756523,0.34263832,1.2106339,0.59313603,0.70370874,2.1667159,0.91899571,1.3971093,0.99292711,0.59782907,0.98308038,1.3084559,0.55686579,0.73543754,0.41500979,0.43707074,1.2259204,0.58127681,2.6890171,0.19767692,0.17950028,0.073124179
15,0.50205548,0.1476469,0.31664616,1.1688741,0.64865752,0.40473265,1.2050062,0.59824137,0.32800826,1.668206,0.48223006,0.27482721,-0.70630453,0.98754646,0.50112303,2.2487902,0.31930911,0.6303957,1.0880765,0.5264121,-0.36808017,0.08725314,0.47041178,1.3510633,0.47527619,0.6692266,1.1949282,0.20303954,0.46679299,0.15058441,-0.15738917,0.65656714,1.2571379,0.18824682,0.5347352,2.0412979,0.58597594,0.99970742,1.6163364,0.29476758,0.5807386,0.38123865,0.31452914,0.31421954,0.65173918,0.5358112,1.4684175,1.450874,0.99311088,0.12377605,1.814836,1.1685633,2.1130509,-0.19441323,0.73059393,0.59401433,2.0394327,0.46737906,0.64275558,0.50691007,0.59591868,1.2215121,0.7809784,0.28914124,-0.022584248,0.18753379,0.16455766,0.41601568,1.1593518,0.9548887,0.26158131,0.54309888,0.50871874,-0.1743352,0.54278954,0.56688351,0.78922775,0.068846565,0.92756523,0.34263832,1.2106339,0.59313603,0.70370874,2.1667159,0.91899571,1.3971093,0.99292711,0.59782907,0.98308038,1.3084559,0.55686579,0.73543754,0.41500979,0.43707074,1.2259204,0.58127681,2.6890171,0.19767692,0.17950028,0.073124179
16,0.50205548,0.1476469,0.31664616,1.1688741,0.64865752,0.40473265,1.2050062,0.59824137,0.32800826,1.668206,0.48223006,0.27482721,-0.70630453,0.98754646,0.50112303,2.2487902,0.31930911,0.6303957,1.0880765,0.5264121,-0.36808017,0.08725314,0.47041178,1.3510633,0.47527619,0.6692266,1.1949282,0.20303954,0.46679299,0.15058441,-0.15738917,0.65656714,1.2571379,0.18824682,0.5347352,2.0412979,0.58597594,0.99970742,1.6163364,0.29476758,0.5807386,0.38123865,0.31452914,0.31421954,0.65173918,0.5358112,1.4684175,1.450874,0.99311088,0.12377605,1.814836,1.1685633,2.1130509,-0.19441323,0.73059393,0.59401433,2.0394327,0.46737906,0.64275558,0.50691007,0.59591868,1.2215121,0.7809784,0.28914124,-0.022584248,0.18753379,0.16455766,0.41601568,1.1593518,0.9548887,0.26158131,0.54309888,0.50871874,-0.1743352,0.54278954,0.56688351,0.78922775,0.068846565,0.92756523,0.34263832,1.2106339,0.59313603,0.70370874,2.1667159,0.91899571,1.3971093,0.99292711,0.59782907,0.98308038,1.3084559,0.55686579,0.73543754,0.41500979,0.43707074,1.2259204,0.58127681,2.6890171,0.19767692,0.17950028,0.073124179
17,0.50205548,0.1476469,0.31664616,1.1688741,0.64865752,0.40473265,1.2050062,0.59824137,0.32800826,1.668206,0.48223006,0.27482721,-0.70630453,0.98754646,0.50112303,2.2487902,0.31930911,0.6303957,1.0880765,0.5264121,-0.36808017,0.08725314,0.47041178,1.3510633,0.47527619,0.6692266,1.1949282,0.20303954,0.46679299,0.15058441,-0.15738917,0.65656714,1.2571379,0.18824682,0.5347352,2.0412979,0.58597594,0.99970742,1.6163364,0.29476758,0.5807386,0.38123865,0.31452914,0.31421954,0.65173918,0.5358112,1.4684175,1.450874,0.99311088,0.12377605,1.814836,1.1685633,2.1130509,-0.19441323,0.73059393,0.59401433,2.0394327,0.46737906,0.64275558,0.50691007,0.59591868,1.2215121,0.7809784,0.28914124,-0.022584248,0.18753379,0.16455766,0.41601568,1.1593518,0.9548887,0.26158131,0.54309888,0.50871874,-0.1743352,0.54278954,0.56688351,0.78922775,0.068846565,0.92756523,0.34263832,1.2106339,0.59313603,0.70370874,2.1667159,0.91899571,1.3971093,0.99292711,0.59782907,0.98308038,1.3084559,0.55686579,0.73543754,0.41500979,0.43707074,1.2259204,0.58127681,2.6890171,0.19767692,0.17950028,0.073124179
18,0.50205548,0.1476469,0.31664616,1.1688741,0.64865752,0.40473265,1.2050062,0.59824137,0.32800826,1.668206,0.48223006,0.27482721,-0.70630453,0.98754646,0.50112303,2.2487902,0.31930911,0.6303957,1.0880765,0.5264121,-0.36808017,0.08725314,0.47041178,1.3510633,0.47527619,0.6692266,1.1949282,0.20303954,0.46679299,0.15058441,-0.15738917,0.65656714,1.2571379,0.18824682,0.5347352,2.0412979,0.58597594,0.99970742,1.6163364,0.29476758,0.5807386,0.38123865,0.31452914,0.31421954,0.65173918,0.5358112,1.4684175,1.450874,0.99311088,0.12377605,1.814836,1.1685633,2.1130509,-0.19441323,0.73059393,0.59401433,2.0394327,0.46737906,0.64275558,0.50691007,0.59591868,1.2215121,0.7809784,0.28914124,-0.022584248,0.18753379,0.16455766,0.41601568,1.1593518,0.9548887,0.26158131,0.54309888,0.50871874,-0.1743352,0.54278954,0.56688351,0.78922775,0.068846565,0.92756523,0.34263832,1.2106339,0.59313603,0.70370874,2.1667159,0.91899571,1.3971093,0.99292711,0.59782907,0.98308038,1.3084559,0.55686579,0.73543754,0.41500979,0.43707074,1.2259204,0.58127681,2.6890171,0.19767692,0.17950028,0.073124179
19,0.50205548,0.1476469,0.31664616,1.1688741,0.64865752,0.40473265,1.2050062,0.59824137,0.32800826,1.668206,0.48223006,0.27482721,-0.70630453,0.98754646,0.50112303,2.2487902,0.31930911,0.6303957,1.0880765,0.5264121,-0.36808017,0.08725314,0.47041178,1.3510633,0.47527619,0.6692266,1.1949282,0.20303954,0.46679299,0.15058441,-0.15738917,0.65656714,1.2571379,0.18824682,0.5347352,2.0412979,0.58597594,0.99970742,1.6163364,0.29476758,0.5807386,0.38123865,0.31452914,0.31421954,0.65173918,0.5358112,1.4684175,1.450874,0.99311088,0.12377605,1.814836,1.1685633,2.1130509,-0.19441323,0.73059393,0.59401433,2.0394327,0.46737906,0.64275558,0.50691007,0.59591868,1.2215121,0.7809784,0.28914124,-0.022584248,0.18753379,0.16455766,0.41601568,1.1593518,0.9548887,0.26158131,0.54309888,0.50871874,-0.1743352,0.54278954,0.56688351,0.78922775,0.068846565,0.92756523,0.34263832,1.2106339,0.59313603,0.70370874,2.1667159,0.91899571,1.3971093,0.99292711,0.59782907,0.98308038,1.3084559,0.55686579,0.73543754,0.41500979,0.43707074,1.2259204,0.58127681,2.6890171,0.19767692,0.17950028,0.073124179
20,0.50205548,0.1476469,0.31664616,1.1688741,0.64865752,0.40473265,1.2050062,0.59824137,0.32800826,1.668206,0.48223006,0.27482721,-0.70630453,0.98754646,0.50112303,2.2487902,0.31930911,0.6303957,1.0880765,0.5264121,-0.36808017,0.08725314,0.47041178,1.3510633,0.47527619,0.6692266,1.1949282,0.20303954,0.46679299,0.15058441,-0.15738917,0.65656714,1.2571379,0.18824682,0.5347352,2.0412979,0.58597594,0.99970742,1.6163364,0.29476758,0.5807386,0.38123865,0.31452914,0.31421954,0.65173918,0.5358112,1.4684175,1.450874,0.99311088,0.12377605,1.814836,1.1685633,2.1130509,-0.19441323,0.73059393,0.59401433,2.0394327,0.46737906,0.64275558,0.50691007,0.59591868,1.2215121,0.7809784,0.28914124,-0.022584248,0.18753379,0.16455766,0.41601568,1.1593518,0.9548887,0.26158131,0.54309888,0.50871874,-0.1743352,0.54278954,0.56688351,0.78922775,0.068846565,0.92756523,0.34263832,1.2106339,0.59313603,0.70370874,2.1667159,0.91899571,1.3971093,0.99292711,0.59782907,0.98308038,1.3084559,0.55686579,0.73543754,0.41500979,0.43707074,1.2259204,0.58127681,2.6890171,0.19767692,0.17950028,0.073124179
21,0.50205548,0.1476469,0.31664616,1.1688741,0.64865752,0.40473265,1.2050062,0.59824137,0.32800826,1.668206,0.48223006,0.27482721,-0.70630453,0.98754646,0.50112303,2.2487902,0.31930911,0.6303957,1.0880765,0.5264121,-0.36808017,0.08725314,0.47041178,1.3510633,0.47527619,0.6692266,1.1949282,0.20303954,0.46679299,0.15058441,-0.15738917,0.65656714,1.2571379,0.18824682,0.5347352,2.0412979,0.58597594,0.99970742,1.6163364,0.29476758,0.5807386,0.38123865,0.31452914,0.31421954,0.65173918,0.5358112,1.4684175,1.450874,0.99311088,0.12377605,1.814836,1.1685633,2.1130509,-0.19441323,0.73059393,0.59401433,2.0394327,0.46737906,0.64275558,0.50691007,0.59591868,1.2215121,0.7809784,0.28914124,-0.022584248,0.18753379,0.16455766,0.41601568,1.1593518,0.9548887,0.26158131,0.54309888,0.50871874,-0.1743352,0.54278954,0.56688351,0.78922775,0.068846565,0.92756523,0.34263832,1.2106339,0.59313603,0.70370874,2.1667159,0.91899571,1.3971093,0.99292711,0.59782907,0.98308038,1.3084559,0.55686579,0.73543754,0.41500979,0.43707074,1.2259204,0.58127681,2.6890171,0.19767692,0.17950028,0.073124179
22,0.50205548,0.1476469,0.31664616,1.1688741,0.64865752,0.40473265,1.2050062,0.59824137,0.32800826,1.668206,0.48223006,0.27482721,-0.70630453,0.98754646,0.50112303,2.2487902,0.31930911,0.6303957,1.0880765,0.5264121,-0.36808017,0.08725314,0.47041178,1.3510633,0.47527619,0.6692266,1.1949282,0.20303954,0.46679299,0.15058441,-0.15738917,0.65656714,1.2571379,0.18824682,0.5347352,2.0412979,0.58597594,0.99970742,1.6163364,0.29476758,0.5807386,0.38123865,0.31452914,0.31421954,0.65173918,0.5358112,1.4684175,1.450874,0.99311088,0.12377605,1.814836,1.1685633,2.1130509,-0.19441323,0.73059393,0.59401433,2.0394327,0.46737906,0.64275558,0.50691007,0.59591868,1.2215121,0.7809784,0.28914124,-0.022584248,0.18753379,0.16455766,0.41601568,1.1593518,0.9548887,0.26158131,0.54309888,0.50871874,-0.1743352,0.54278954,0.56688351,0.78922775,0.068846565,0.92756523,0.34263832,1.2106339,0.59313603,0.70370874,2.1667159,0.91899571,1.3971093,0.99292711,0.59782907,0.98308038,1.3084559,0.55686579,0.73543754,0.41500979,0.43707074,1.2259204,0.58127681,2.6890171,0.19767692,0.17950028,0.073124179
23,0.50205548,0.1476469,0.31664616,1.1688741,0.64865752,0.40473265,1.2050062,0.59824137,0.32800826,1.668206,0.48223006,0.27482721,-0.70630453,0.98754646,0.50112303,2.2487902,0.31930911,0.6303957,1.0880765,0.5264121,-0.36808017,0.08725314,0.47041178,1.3510633,0.47527619,0.6692266,1.1949282,0.20303954,0.46679299,0.15058441,-0.15738917,0.65656714,1.2571379,0.18824682,0.5347352,2.0412979,0.58597594,0.99970742,1.6163364,0.29476758,0.5807386,0.38123865,0.31452914,0.31421954,0.65173918,0.5358112,1.4684175,1.450874,0.99311088,0.12377605,1.814836,1.1685633,2.1130509,-0.19441323,0.73059393,0.59401433,2.0394327,0.46737906,0.64275558,0.50691007,0.59591868,1.2215121,0.7809784,0.28914124,-0.022584248,0.18753379,0.16455766,0.41601568,1.1593518,0.9548887,0.26158131,0.54309888,0.50871874,-0.1743352,0.54278954,0.56688351,0.78922775,0.068846565,0.92756523,0.34263832,1.2106339,0.59313603,0.70370874,2.1667159,0.91899571,1.3971093,0.99292711,0.59782907,0.98308038,1.3084559,0.55686579,0.73543754,0.41500979,0.43707074,1.2259204,0.58127681,2.6890171,0.19767692,0.17950028,0.073124179
24,0.50205548,0.1476469,0.31664616,1.1688741,0.64865752,0.40473265,1.2050062,0.59824137,0.32800826,1.668206,0.48223006,0.27482721,-0.70630453,0.98754646,0.50112303,2.2487902,0.31930911,0.6303957,1.0880765,0.5264121,-0.36808017,0.08725314,0.47041178,1.3510633,0.47527619,0.6692266,1.1949282,0.20303954,0.46679299,0.15058441,-0.15738917,0.65656714,1.2571379,0.18824682,0.5347352,2.0412979,0.58597594,0.99970742,1.6163364,0.29476758,0.5807386,0.38123865,0.31452914,0.31421954,0.65173918,0.5358112,1.4684175,1.450874,0.99311088,0.12377605,1.814836,1.1685633,2.1130509,-0.19441323,0.73059393,0.59401433,2.0394327,0.46737906,0.64275558,0.50691007,0.59591868,1.2215121,0.7809784,0.28914124,-0.022584248,0.18753379,0.16455766,0.41601568,1.1593518,0.9548887,0.26158131,0.54309888,0.50871874,-0.1743352,0.54278954,0.56688351,0.78922775,0.068846565,0.92756523,0.34263832,1.2106339,0.59313603,0.70370874,2.1667159,0.91899571,1.3971093,0.99292711,0.59782907,0.98308038,1.3084559,0.55686579,0.73543754,0.41500979,0.43707074,1.2259204,0.58127681,2.6890171,0.19767692,0.17950028,0.073124179
25,0.50205548,0.1476469,0.31664616,1.1688741,0.64865752,0.40473265,1.2050062,0.59824137,0.32800826,1.668206,0.48223006,0.27482721,-0.70630453,0.98754646,0.50112303,2.2487902,0.31930911,0.6303957,1.0880765,0.5264121,-0.36808017,0.08725314,0.47041178,1.3510633,0.47527619,0.6692266,1.1949282,0.20303954,0.46679299,0.15058441,-0.15738917,0.65656714,1.2571379,0.18824682,0.5347352,2.0412979,0.58597594,0.99970742,1.6163364,0.29476758,0.5807386,0.38123865,0.31452914,0.31421954,0.65173918,0.5358112,1.4684175,1.450874,0.99311088,0.12377605,1.814836,1.1685633,2.1130509,-0.19441323,0.73059393,0.59401433,2.0394327,0.46737906,0.64275558,0.50691007,0.59591868,1.2215121,0.7809784,0.28914124,-0.022584248,0.18753379,0.16455766,0.41601568,1.1593518,0.9548887,0.26158131,0.54309888,0.50871874,-0.1743352,0.54278954,0.56688351,0.78922775,0.068846565,0.92756523,0.34263832,1.2106339,0.59313603,0.70370874,2.1667159,0.91899571,1.3971093,0.99292711,0.59782907,0.98308038,1.3084559,0.55686579,0.73543754,0.41500979,0.43707074,1.2259204,0.58127681,2.6890171,0.19767692,0.17950028,0.073124179
26,0.50205548,0.1476469,0.31664616,1.1688741,0.64865752,0.40473265,1.2050062,0.59824137,0.32800826,1.668206,0.48223006,0.27482721,-0.70630453,0.98754646,0.50112303,2.2487902,0.31930911,0.6303957,1.0880765,0.5264121,-0.36808017,0.08725314,0.47041178,1.3510633,0.47527619,0.6692266,1.1949282,0.20303954,0.46679299,0.15058441,-0.15738917,0.65656714,1.2571379,0.18824682,0.5347352,2.0412979,0.58597594,0.99970742,1.6163364,0.29476758,0.5807386,0.38123865,0.31452914,0.31421954,0.65173918,0.5358112,1.4684175,1.450874,0.99311088,0.12377605,1.814836,1.1685633,2.1130509,-0.19441323,0.73059393,0.59401433,2.0394327,0.46737906,0.64275558,0.50691007,0.59591868,1.2215121,0.7809784,0.28914124,-0.022584248,0.18753379,0.16455766,0.41601568,1.1593518,0.9548887,0.26158131,0.54309888,0.50871874,-0.1743352,0.54278954,0.56688351,0.78922775,0.068846565,0.92756523,0.34263832,1.2106339,0.59313603,0.70370874,2.1667159,0.91899571,1.3971093,0.99292711,0.59782907,0.98308038,1.3084559,0.55686579,0.73543754,0.41500979,0.43707074,1.2259204,0.58127681,2.6890171,0.19767692,0.17950028,0.073124179
27,0.50205548,0.1476469,0.31664616,1.1688741,0.64865752,0.40473265,1.2050062,0.59824137,0.32800826,1.668206,0.48223006,0.27482721,-0.70630453,0.98754646,0.50112303,2.2487902,0.31930911,0.6303957,1.0880765,0.5264121,-0.36808017,0.08725314,0.47041178,1.3510633,0.47527619,0.6692266,1.1949282,0.20303954,0.46679299,0.15058441,-0.15738917,0.65656714,1.2571379,0.18824682,0.5347352,2.0412979,0.58597594,0.99970742,1.6163364,0.29476758,0.5807386,0.38123865,0.31452914,0.31421954,0.65173918,0.5358112,1.4684175,1.450874,0.99311088,0.12377605,1.814836,1.1685633,2.1130509,-0.19441323,0.73059393,0.59401433,2.0394327,0.46737906,0.64275558,0.50691007,0.59591868,1.2215121,0.7809784,0.28914124,-0.022584248,0.18753379,0.16455766,0.41601568,1.1593518,0.9548887,0.26158131,0.54309888,0.50871874,-0.1743352,0.54278954,0.56688351,0.78922775,0.068846565,0.92756523,0.34263832,1.2106339,0.59313603,0.70370874,2.1667159,0.91899571,1.3971093,0.99292711,0.59782907,0.98308038,1.3084559,0.55686579,0.73543754,0.41500979,0.43707074,1.2259204,0.58127681,2.6890171,0.19767692,0.17950028,0.073124179
28,0.50205548,0.1476469,0.31664616,1.1688741,0.64865752,0.40473265,1.2050062,0.59824137,0.32800826,1.668206,0.48223006,0.27482721,-0.70630453,0.98754646,0.50112303,2.2487902,0.31930911,0.6303957,1.0880765,0.5264121,-0.36808017,0.08725314,0.47041178,1.3510633,0.47527619,0.6692266,1.1949282,0.20303954,0.46679299,0.15058441,-0.15738917,0.65656714,1.2571379,0.18824682,0.5347352,2.0412979,0.58597594,0.99970742,1.6163364,0.29476758,0.5807386,0.38123865,0.31452914,0.31421954,0.65173918,0.5358112,1.4684175,1.450874,0.99311088,0.12377605,1.814836,1.1685633,2.1130509,-0.19441323,0.73059393,0.59401433,2.0394327,0.46737906,0.64275558,0.50691007,0.59591868,1.2215121,0.7809784,0.28914124,-0.022584248,0.18753379,0.16455766,0.41601568,1.1593518,0.9548887,0.26158131,0.54309888,0.50871874,-0.1743352,0.54278954,0.56688351,0.78922775,0.068846565,0.92756523,0.34263832,1.2106339,0.59313603,0.70370874,2.1667159,0.91899571,1.3971093,0.99292711,0.59782907,0.98308038,1.3084559,0.55686579,0.73543754,0.41500979,0.43707074,1.2259204,0.58127681,2.6890171,0.19767692,0.17950028,0.073124179
29,0.50205548,0.1476469,0.31664616,1.1688741,0.64865752,0.40473265,1.2050062,0.59824137,0.32800826,1.668206,0.48223006,0.27482721,-0.70630453,0.98754646,0.50112303,2.2487902,0.31930911,0.6303957,1.0880765,0.5264121,-0.36808017,0.08725314,0.47041178,1.3510633,0.47527619,0.6692266,1.1949282,0.20303954,0.46679299,0.15058441,-0.15738917,0.65656714,1.2571379,0.18824682,0.5347352,2.0412979,0.58597594,0.99970742,1.6163364,0.29476758,0.5807386,0.38123865,0.31452914,0.31421954,0.65173918,0.5358112,1.4684175,1.450874,0.99311088,0.12377605,1.814836,1.1685633,2.1130509,-0.19441323,0.73059393,0.59401433,2.0394327,0.46737906,0.64275558,0.50691007,0.59591868,1.2215121,0.7809784,0.28914124,-0.022584248,0.18753379,0.16455766,0.41601568,1.1593518,0.9548887,0.26158131,0.54309888,0.50871874,-0.1743352,0.54278954,0.56688351,0.78922775,0.068846565,0.92756523,0.34263832,1.2106339,0.59313603,0.70370874,2.1667159,0.91899571,1.3971093,0.99292711,0.59782907,0.98308038,1.3084559,0.55686579,0.73543754,0.41500979,0.43707074,1.2259204,0.58127681,2.6890171,0.19767692,0.17950028,0.073124179
30,0.50205548,0.1476469,0.31664616,1.1688741,0.64865752,0.40473265,1.2050062,0.59824137,0.32800826,1.668206,0.48223006,0.27482721,-0.70630453,0.98754646,0.50112303,2.2487902,0.31930911,0.6303957,1.0880765,0.5264121,-0.36808017,0.08725314,0.47041178,1.3510633,0.47527619,0.6692266,1.1949282,0.20303954,0.46679299,0.15058441,-0.15738917,0.65656714,1.2571379,0.18824682,0.5347352,2.0412979,0.58597594,0.99970742,1.6163364,0.29476758,0.5807386,0.38123865,0.31452914,0.31421954,0.65173918,0.5358112,1.4684175,1.450874,0.99311088,0.12377605,1.814836,1.1685633,2.1130509,-0.19441323,0.73059393,0.59401433,2.0394327,0.46737906,0.64275558,0.50691007,0.59591868,1.2215121,0.7809784,0.28914124,-0.022584248,0.18753379,0.16455766,0.41601568,1.1593518,0.9548887,0.26158131,0.54309888,0.50871874,-0.1743352,0.54278954,0.56688351,0.78922775,0.068846565,0.92756523,0.34263832,1.2106339,0.59313603,0.70370874,2.1667159,0.91899571,1.3971093,0.99292711,0.59782907,0.98308038,1.3084559,0.55686579,0.73543754,0.41500979,0.43707074,1.2259204,0.58127681,2.6890171,0.19767692,0.17950028,0.073124179
31,0.50205548,0.1476469,0.31664616,1.1688741,0.64865752,0.40473265,1.2050062,0.59824137,0.32800826,1.668206,0.48223006,0.27482721,-0.70630453,0.98754646,0.50112303,2.2487902,0.31930911,0.6303957,1.0880765,0.5264121,-0.36808017,0.08725314,0.47041178,1.3510633,0.47527619,0.6692266,1.1949282,0.20303954,0.46679299,0.15058441,-0.15738917,0.65656714,1.2571379,0.18824682,0.5347352,2.0412979,0.58597594,0.99970742,1.6163364,0.29476758,0.5807386,0.38123865,0.31452914,0.31421954,0.65173918,0.5358112,1.4684175,1.450874,0.99311088,0.12377605,1.814836,1.1685633,2.1130509,-0.19441323,0.73059393,0.59401433,2.0394327,0.46737906,0.64275558,0.50691007,0.59591868,1.2215121,0.7809784,0.28914124,-0.022584248,0.18753379,0.16455766,0.41601568,1.1593518,0.9548887,0.26158131,0.54309888,0.50871874,-0.1743352,0.54278954,0.56688351,0.78922775,0.068846565,0.92756523,0.34263832,1.2106339,0.59313603,0.70370874,2.1667159,0.91899571,1.3971093,0.99292711,0.59782907,0.98308038,1.3084559,0.55686579,0.73543754,0.41500979,0.43707074,1.2259204,0.58127681,2.6890171,0.19767692,0.17950028,0.073124179
32,0.50205548,0.1476469,0.31664616,1.1688741,0.64865752,0.40473265,1.2050062,0.59824137,0.32800826,1.668206,0.48223006,0.27482721,-0.70630453,0.98754646,0.50112303,2.2487902,0.31930911,0.6303957,1.0880765,0.5264121,-0.36808017,0.08725314,0.47041178,1.3510633,0.47527619,0.6692266,1.1949282,0.20303954,0.46679299,0.15058441,-0.15738917,0.65656714,1.2571379,0.18824682,0.5347352,2.0412979,0.58597594,0.99970742,1.6163364,0.29476758,0.5807386,0.38123865,0.31452914,0.31421954,0.65173918,0.5358112,1.4684175,1.450874,0.99311088,0.12377605,1.814836,1.1685633,2.1130509,-0.19441323,0.73059393,0.59401433,2.0394327,0.46737906,0.64275558,0.50691007,0.59591868,1.2215121,0.7809784,0.28914124,-0.022584248,0.18753379,0.16455766,0.41601568,1.1593518,0.9548887,0.26158131,0.54309888,0.50871874,-0.1743352,0.54278954,0.56688351,0.78922775,0.068846565,0.92756523,0.34263832,1.2106339,0.59313603,0.70370874,2.1667159,0.91899571,1.3971093,0.99292711,0.59782907,0.98308038,1.3084559,0.55686579,0.73543754,0.41500979,0.43707074,1.2259204,0.58127681,2.6890171,0.19767692,0.17950028,0.073124179
33,0.50205548,0.1476469,0.31664616,1.1688741,0.64865752,0.40473265,1.2050062,0.59824137,0.32800826,1.668206,0.48223006,0.27482721,-0.70630453,0.98754646,0.50112303,2.2487902,0.31930911,0.6303957,1.0880765,0.5264121,-0.36808017,0.08725314,0.47041178,1.3510633,0.47527619,0.6692266,1.1949282,0.20303954,0.46679299,0.15058441,-0.15738917,0.65656714,1.2571379,0.18824682,0.5347352,2.0412979,0.58597594,0.99970742,1.6163364,0.29476758,0.5807386,0.38123865,0.31452914,0.31421954,0.65173918,0.5358112,1.4684175,1.450874,0.99311088,0.12377605,1.814836,1.1685633,2.1130509,-0.19441323,0.73059393,0.59401433,2.0394327,0.46737906,0.64275558,0.50691007,0.59591868,1.2215121,0.7809784,0.28914124,-0.022584248,0.18753379,0.16455766,0.41601568,1.1593518,0.9548887,0.26158131,0.54309888,0.50871874,-0.1743352,0.54278954,0.56688351,0.78922775,0.068846565,0.92756523,0.34263832,1.2106339,0.59313603,0.70370874,2.1667159,0.91899571,1.3971093,0.99292711,0.59782907,0.98308038,1.3084559,0.55686579,0.73543754,0.41500979,0.43707074,1.2259204,0.58127681,2.6890171,0.19767692,0.17950028,0.073124179
34,0.50205548,0.1476469,0.31664616,1.1688741,0.64865752,0.40473265,1.2050062,0.59824137,0.32800826,1.668206,0.48223006,0.27482721,-0.70630453,0.98754646,0.50112303,2.2487902,0.31930911,0.6303957,1.0880765,0.5264121,-0.36808017,0.08725314,0.47041178,1.3510633,0.47527619,0.6692266,1.1949282,0.20303954,0.46679299,0.15058441,-0.15738917,0.65656714,1.2571379,0.18824682,0.5347352,2.0412979,0.58597594,0.99970742,1.6163364,0.29476758,0.5807386,0.38123865,0.31452914,0.31421954,0.65173918,0.5358112,1.4684175,1.450874,0.99311088,0.12377605,1.814836,1.1685633,2.1130509,-0.19441323,0.73059393,0.59401433,2.0394327,0.46737906,0.64275558,0.50691007,0.59591868,1.2215121,0.7809784,0.28914124,-0.022584248,0.18753379,0.16455766,0.41601568,1.1593518,0.9548887,0.26158131,0.54309888,0.50871874,-0.1743352,0.54278954,0.56688351,0.78922775,0.068846565,0.92756523,0.34263832,1.2106339,0.59313603,0.70370874,2.1667159,0.91899571,1.3971093,0.99292711,0.59782907,0.98308038,1.3084559,0.55686579,0.73543754,0.41500979,0.43707074,1.2259204,0.58127681,2.6890171,0.19767692,0.17950028,0.073124179
35,0.50205548,0.1476469,0.31664616,1.1688741,0.64865752,0.40473265,1.2050062,0.59824137,0.32800826,1.668206,0.48223006,0.27482721,-0.70630453,0.98754646,0.50112303,2.2487902,0.31930911,0.6303957,1.0880765,0.5264121,-0.36808017,0.08725314,0.47041178,1.3510633,0.47527619,0.6692266,1.1949282,0.20303954,0.46679299,0.15058441,-0.15738917,0.65656714,1.2571379,0.18824682,0.5347352,2.0412979,0.58597594,0.99970742,1.6163364,0.29476758,0.5807386,0.38123865,0.31452914,0.31421954,0.65173918,0.5358112,1.4684175,1.450874,0.99311088,0.12377605,1.814836,1.1685633,2.1130509,-0.19441323,0.73059393,0.59401433,2.0394327,0.46737906,0.64275558,0.50691007,0.59591868,1.2215121,0.7809784,0.28914124,-0.022584248,0.18753379,0.16455766,0.41601568,1.1593518,0.9548887,0.26158131,0.54309888,0.50871874,-0.1743352,0.54278954,0.56688351,0.78922775,0.068846565,0.92756523,0.34263832,1.2106339,0.59313603,0.70370874,2.1667159,0.91899571,1.3971093,0.99292711,0.59782907,0.98308038,1.3084559,0.55686579,0.73543754,0.41500979,0.43707074,1.2259204,0.58127681,2.6890171,0.19767692,0.17950028,0.073124179
36,0.50205548,0.1476469,0.31664616,1.1688741,0.64865752,0.40473265,1.2050062,0.59824137,0.32800826,1.668206,0.48223006,0.27482721,-0.70630453,0.98754646,0.50112303,2.2487902,0.31930911,0.6303957,1.0880765,0.5264121,-0.36808017,0.08725314,0.47041178,1.3510633,0.47527619,0.6692266,1.1949282,0.20303954,0.46679299,0.15058441,-0.15738917,0.65656714,1.2571379,0.18824682,0.5347352,2.0412979,0.58597594,0.99970742,1.6163364,0.29476758,0.5807386,0.38123865,0.31452914,0.31421954,0.65173918,0.5358112,1.4684175,1.450874,0.99311088,0.12377605,1.814836,1.1685633,2.1130509,-0.19441323,0.73059393,0.59401433,2.0394327,0.46737906,0.64275558,0.50691007,0.59591868,1.2215121,0.7809784,0.28914124,-0.022584248,0.18753379,0.16455766,0.41601568,1.1593518,0.9548887,0.26158131,0.54309888,0.50871874,-0.1743352,0.54278954,0.56688351,0.78922775,0.068846565,0.92756523,0.34263832,1.2106339,0.59313603,0.70370874,2.1667159,0.91899571,1.3971093,0.99292711,0.59782907,0.98308038,1.3084559,0.55686579,0.73543754,0.41500979,0.43707074,1.2259204,0.58127681,2.6890171,0.19767692,0.17950028,0.073124179
37,0.50205548,0.1476469,0.31664616,1.1688741,0.64865752,0.40473265,1.2050062,0.59824137,0.32800826,1.668206,0.48223006,0.27482721,-0.70630453,0.98754646,0.50112303,2.2487902,0.31930911,0.6303957,1.0880765,0.5264121,-0.36808017,0.08725314,0.47041178,1.3510633,0.47527619,0.6692266,1.1949282,0.20303954,0.46679299,0.15058441,-0.15738917,0.65656714,1.2571379,0.18824682,0.5347352,2.0412979,0.58597594,0.99970742,1.6163364,0.29476758,0.5807386,0.38123865,0.31452914,0.31421954,0.65173918,0.5358112,1.4684175,1.450874,0.99311088,0.12377605,1.814836,1.1685633,2.1130509,-0.19441323,0.73059393,0.59401433,2.0394327,0.46737906,0.64275558,0.50691007,0.59591868,1.2215121,0.7809784,0.28914124,-0.022584248,0.18753379,0.16455766,0.41601568,1.1593518,0.9548887,0.26158131,0.54309888,0.50871874,-0.1743352,0.54278954,0.56688351,0.78922775,0.068846565,0.92756523,0.34263832,1.2106339,0.59313603,0.70370874,2.1667159,0.91899571,1.3971093,0.99292711,0.59782907,0.98308038,1.3084559,0.55686579,0.73543754,0.41500979,0.43707074,1.2259204,0.58127681,2.6890171,0.19767692,0.17950028,0.073124179
38,0.50205548,0.1476469,0.31664616,1.1688741,0.64865752,0.40473265,1.2050062,0.59824137,0.32800826,1.668206,0.48223006,0.27482721,-0.70630453,0.98754646,0.50112303,2.2487902,0.31930911,0.6303957,1.0880765,0.5264121,-0.36808017,0.08725314,0.47041178,1.3510633,0.47527619,0.6692266,1.1949282,0.20303954,0.46679299,0.15058441,-0.15738917,0.65656714,1.2571379,0.18824682,0.5347352,2.0412979,0.58597594,0.99970742,1.6163364,0.29476758,0.5807386,0.38123865,0.31452914,0.31421954,0.65173918,0.5358112,1.4684175,1.450874,0.99311088,0.12377605,1.814836,1.1685633,2.1130509,-0.19441323,0.73059393,0.59401433,2.0394327,0.46737906,0.64275558,0.50691007,0.59591868,1.2215121,0.7809784,0.28914124,-0.022584248,0.18753379,0.16455766,0.41601568,1.1593518,0.9548887,0.26158131,0.54309888,0.50871874,-0.1743352,0.54278954,0.56688351,0.78922775,0.068846565,0.92756523,0.34263832,1.2106339,0.59313603,0.70370874,2.1667159,0.91899571,1.3971093,0.99292711,0.59782907,0.98308038,1.3084559,0.55686579,0.73543754,0.41500979,0.43707074,1.2259204,0.58127681,2.6890171,0.19767692,0.17950028,0.073124179
39,0.50205548,0.1476469,0.31664616,1.1688741,0.64865752,0.40473265,1.2050062,0.59824137,0.32800826,1.668206,0.48223006,0.27482721,-0.70630453,0.98754646,0.50112303,2.2487902,0.31930911,0.6303957,1.0880765,0.5264121,-0.36808017,0.08725314,0.47041178,1.3510633,0.47527619,0.6692266,1.1949282,0.20303954,0.46679299,0.15058441,-0.15738917,0.65656714,1.2571379,0.18824682,0.5347352,2.0412979,0.58597594,0.99970742,1.6163364,0.29476758,0.5807386,0.38123865,0.31452914,0.31421954,0.65173918,0.5358112,1.4684175,1.450874,0.99311088,0.12377605,1.814836,1.1685633,2.1130509,-0.19441323,0.73059393,0.59401433,2.0394327,0.46737906,0.64275558,0.50691007,0.59591868,1.2215121,0.7809784,0.28914124,-0.022584248,0.18753379,0.16455766,0.41601568,1.1593518,0.9548887,0.26158131,0.54309888,0.50871874,-0.1743352,0.54278954,0.56688351,0.78922775,0.068846565,0.92756523,0.34263832,1.2106339,0.59313603,0.70370874,2.1667159,0.91899571,1.3971093,0.99292711,0.59782907,0.98308038,1.3084559,0.55686579,0.73543754,0.41500979,0.43707074,1.2259204,0.58127681,2.6890171,0.19767692,0.17950028,0.073124179
40,0.50205548,0.1476469,0.31664616,1.1688741,0.64865752,0.40473265,1.2050062,0.59824137,0.32800826,1.668206,0.48223006,0.27482721,-0.70630453,0.98754646,0.50112303,2.2487902,0.31930911,0.6303957,1.0880765,0.5264121,-0.36808017,0.08725314,0.47041178,1.3510633,0.47527619,0.6692266,1.1949282,0.20303954,0.46679299,0.15058441,-0.15738917,0.65656714,1.2571379,0.18824682,0.5347352,2.0412979,0.58597594,0.99970742,1.6163364,0.29476758,0.5807386,0.38123865,0.31452914,0.31421954,0.65173918,0.5358112,1.4684175,1.450874,0.99311088,0.12377605,1.814836,1.1685633,2.1130509,-0.19441323,0.73059393,0.59401433,2.0394327,0.46737906,0.64275558,0.50691007,0.59591868,1.2215121,0.7809784,0.28914124,-0.022584248,0.18753379,0.16455766,0.41601568,1.1593518,0.9548887,0.26158131,0.54309888,0.50871874,-0.1743352,0.54278954,0.56688351,0.78922775,0.068846565,0.92756523,0.34263832,1.2106339,0.59313603,0.70370874,2.1667159,0.91899571,1.3971093,0.99292711,0.59782907,0.98308038,1.3084559,0.55686579,0.73543754,0.41500979,0.43707074,1.2259204,0.58127681,2.6890171,0.19767692,0.17950028,0.073124179
41,0.50205548,0.1476469,0.31664616,1.1688741,0.64865752,0.40473265,1.2050062,0.59824137,0.32800826,1.668206,0.48223006,0.27482721,-0.70630453,0.98754646,0.50112303,2.2487902,0.31930911,0.6303957,1.0880765,0.5264121,-0.36808017,0.08725314,0.47041178,1.3510633,0.47527619,0.6692266,1.1949282,0.20303954,0.46679299,0.15058441,-0.15738917,0.65656714,1.2571379,0.18824682,0.5347352,2.0412979,0.58597594,0.99970742,1.6163364,0.29476758,0.5807386,0.38123865,0.31452914,0.31421954,0.65173918,0.5358112,1.4684175,1.450874,0.99311088,0.12377605,1.814836,1.1685633,2.1130509,-0.19441323,0.73059393,0.59401433,2.0394327,0.46737906,0.64275558,0.50691007,0.59591868,1.2215121,0.7809784,0.28914124,-0.022584248,0.18753379,0.16455766,0.41601568,1.1593518,0.9548887,0.26158131,0.54309888,0.50871874,-0.1743352,0.54278954,0.56688351,0.78922775,0.068846565,0.92756523,0.34263832,1.2106339,0.59313603,0.70370874,2.1667159,0.91899571,1.3971093,0.99292711,0.59782907,0.98308038,1.3084559,0.55686579,0.73543754,0.41500979,0.43707074,1.2259204,0.58127681,2.6890171,0.19767692,0.17950028,0.073124179
42,0.50205548,0.1476469,0.31664616,1.1688741,0.64865752,0.40473265,1.2050062,0.59824137,0.32800826,1.668206,0.48223006,0.27482721,-0.70630453,0.98754646,0.50112303,2.2487902,0.31930911,0.6303957,1.0880765,0.5264121,-0.36808017,0.08725314,0.47041178,1.3510633,0.47527619,0.6692266,1.1949282,0.20303954,0.46679299,0.15058441,-0.15738917,0.65656714,1.2571379,0.18824682,0.5347352,2.0412979,0.58597594,0.99970742,1.6163364,0.29476758,0.5807386,0.38123865,0.31452914,0.31421954,0.65173918,0.5358112,1.4684175,1.450874,0.99311088,0.12377605,1.814836,1.1685633,2.1130509,-0.19441323,0.73059393,0.59401433,2.0394327,0.46737906,0.64275558,0.50691007,0.59591868,1.2215121,0.7809784,0.28914124,-0.022584248,0.18753379,0.16455766,0.41601568,1.1593518,0.9548887,0.26158131,0.54309888,0.50871874,-0.1743352,0.54278954,0.56688351,0.78922775,0.068846565,0.92756523,0.34263832,1.2106339,0.59313603,0.70370874,2.1667159,0.91899571,1.3971093,0.99292711,0.59782907,0.98308038,1.3084559,0.55686579,0.73543754,0.41500979,0.43707074,1.2259204,0.58127681,2.6890171,0.19767692,0.17950028,0.073124179
43,0.50205548,0.1476469,0.31664616,1.1688741,0.64865752,0.40473265,1.2050062,0.59824137,0.32800826,1.668206,0.48223006,0.27482721,-0.70630453,0.98754646,0.50112303,2.2487902,0.31930911,0.6303957,1.0880765,0.5264121,-0.36808017,0.08725314,0.47041178,1.3510633,0.47527619,0.6692266,1.1949282,0.20303954,0.46679299,0.15058441,-0.15738917,0.65656714,1.2571379,0.18824682,0.5347352,2.0412979,0.58597594,0.99970742,1.6163364,0.29476758,0.5807386,0.38123865,0.31452914,0.31421954,0.65173918,0.5358112,1.4684175,1.450874,0.99311088,0.12377605,1.814836,1.1685633,2.1130509,-0.19441323,0.73059393,0.59401433,2.0394327,0.46737906,0.64275558,0.50691007,0.59591868,1.2215121,0.7809784,0.28914124,-0.022584248,0.18753379,0.16455766,0.41601568,1.1593518,0.9548887,0.26158131,0.54309888,0.50871874,-0.1743352,0.54278954,0.56688351,0.78922775,0.068846565,0.92756523,0.34263832,1.2106339,0.59313603,0.70370874,2.1667159,0.91899571,1.3971093,0.99292711,0.59782907,0.98308038,1.3084559,0.55686579,0.73543754,0.41500979,0.43707074,1.2259204,0.58127681,2.6890171,0.19767692,0.17950028,0.073124179
44,0.50205548,0.1476469,0.31664616,1.1688741,0.64865752,0.40473265,1.2050062,0.59824137,0.32800826,1.668206,0.48223006,0.27482721,-0.70630453,0.98754646,0.50112303,2.2487902,0.31930911,0.6303957,1.0880765,0.5264121,-0.36808017,0.08725314,0.47041178,1.3510633,0.47527619,0.6692266,1.1949282,0.20303954,0.46679299,0.15058441,-0.15738917,0.65656714,1.2571379,0.18824682,0.5347352,2.0412979,0.58597594,0.99970742,1.6163364,0.29476758,0.5807386,0.38123865,0.31452914,0.31421954,0.65173918,0.5358112,1.4684175,1.450874,0.99311088,0.12377605,1.814836,1.1685633,2.1130509,-0.19441323,0.73059393,0.59401433,2.0394327,0.46737906,0.64275558,0.50691007,0.59591868,1.2215121,0.7809784,0.28914124,-0.022584248,0.18753379,0.16455766,0.41601568,1.1593518,0.9548887,0.26158131,0.54309888,0.50871874,-0.1743352,0.54278954,0.56688351,0.78922775,0.068846565,0.92756523,0.34263832,1.2106339,0.59313603,0.70370874,2.1667159,0.91899571,1.3971093,0.99292711,0.59782907,0.98308038,1.3084559,0.55686579,0.73543754,0.41500979,0.43707074,1.2259204,0.58127681,2.6890171,0.19767692,0.17950028,0.073124179
45,0.50205548,0.1476469,0.31664616,1.1688741,0.64865752,0.40473265,1.2050062,0.59824137,0.32800826,1.668206,0.48223006,0.27482721,-0.70630453,0.98754646,0.50112303,2.2487902,0.31930911,0.6303957,1.0880765,0.5264121,-0.36808017,0.08725314,0.47041178,1.3510633,0.47527619,0.6692266,1.1949282,0.20303954,0.46679299,0.15058441,-0.15738917,0.65656714,1.2571379,0.18824682,0.5347352,2.0412979,0.58597594,0.99970742,1.6163364,0.29476758,0.5807386,0.38123865,0.31452914,0.31421954,0.65173918,0.5358112,1.4684175,1.450874,0.99311088,0.12377605,1.814836,1.1685633,2.1130509,-0.19441323,0.73059393,0.59401433,2.0394327,0.46737906,0.64275558,0.50691007,0.59591868,1.2215121,0.7809784,0.28914124,-0.022584248,0.18753379,0.16455766,0.41601568,1.1593518,0.9548887,0.26158131,0.54309888,0.50871874,-0.1743352,0.54278954,0.56688351,0.78922775,0.068846565,0.92756523,0.34263832,1.2106339,0.59313603,0.70370874,2.1667159,0.91899571,1.3971093,0.99292711,0.59782907,0.98308038,1.3084559,0.55686579,0.73543754,0.41500979,0.43707074,1.2259204,0.58127681,2.6890171,0.19767692,0.17950028,0.073124179
46,0.50205548,0.1476469,0.31664616,1.1688741,0.64865752,0.40473265,1.2050062,0.59824137,0.32800826,1.668206,0.48223006,0.27482721,-0.70630453,0.98754646,0.50112303,2.2487902,0.31930911,0.6303957,1.0880765,0.5264121,-0.36808017,0.08725314,0.47041178,1.3510633,0.47527619,0.6692266,1.1949282,0.20303954,0.46679299,0.15058441,-0.15738917,0.65656714,1.2571379,0.18824682,0.5347352,2.0412979,0.58597594,0.99970742,1.6163364,0.29476758,0.5807386,0.38123865,0.31452914,0.31421954,0.65173918,0.5358112,1.4684175,1.450874,0.99311088,0.12377605,1.814836,1.1685633,2.1130509,-0.19441323,0.73059393,0.59401433,2.0394327,0.46737906,0.64275558,0.50691007,0.59591868,1.2215121,0.7809784,0.28914124,-0.022584248,0.18753379,0.16455766,0.41601568,1.1593518,0.9548887,0.26158131,0.54309888,0.50871874,-0.1743352,0.54278954,0.56688351,0.78922775,0.068846565,0.92756523,0.34263832,1.2106339,0.59313603,0.70370874,2.1667159,0.91899571,1.3971093,0.99292711,0.59782907,0.98308038,1.3084559,0.55686579,0.73543754,0.41500979,0.43707074,1.2259204,0.58127681,2.6890171,0.19767692,0.17950028,0.073124179
47,0.50205548,0.1476469,0.31664616,1.1688741,0.64865752,0.40473265,1.2050062,0.59824137,0.32800826,1.668206,0.48223006,0.27482721,-0.70630453,0.98754646,0.50112303,2.2487902,0.31930911,0.6303957,1.0880765,0.5264121,-0.36808017,0.08725314,0.47041178,1.3510633,0.47527619,0.6692266,1.1949282,0.20303954,0.46679299,0.15058441,-0.15738917,0.65656714,1.2571379,0.18824682,0.5347352,2.0412979,0.58597594,0.99970742,1.6163364,0.29476758,0.5807386,0.38123865,0.31452914,0.31421954,0.65173918,0.5358112,1.4684175,1.450874,0.99311088,0.12377605,1.814836,1.1685633,2.1130509,-0.19441323,0.73059393,0.59401433,2.0394327,0.46737906,0.64275558,0.50691007,0.59591868,1.2215121,0.7809784,0.28914124,-0.022584248,0.18753379,0.16455766,0.41601568,1.1593518,0.9548887,0.26158131,0.54309888,0.50871874,-0.1743352,0.54278954,0.56688351,0.78922775,0.068846565,0.92756523,0.34263832,1.2106339,0.59313603,0.70370874,2.1667159,0.91899571,1.3971093,0.99292711,0.59782907,0.98308038,1.3084559,0.55686579,0.73543754,0.41500979,0.43707074,1.2259204,0.58127681,2.6890171,0.19767692,0.17950028,0.073124179
48,0.50205548,0.1476469,0.31664616,1.1688741,0.64865752,0.40473265,1.2050062,0.59824137,0.32800826,1.668206,0.48223006,0.27482721,-0.70630453,0.98754646,0.50112303,2.2487902,0.31930911,0.6303957,1.0880765,0.5264121,-0.36808017,0.08725314,0.47041178,1.3510633,0.47527619,0.6692266,1.1949282,0.20303954,0.46679299,0.15058441,-0.15738917,0.65656714,1.2571379,0.18824682,0.5347352,2.0412979,0.58597594,0.99970742,1.6163364,0.29476758,0.5807386,0.38123865,0.31452914,0.31421954,0.65173918,0.5358112,1.4684175,1.450874,0.99311088,0.12377605,1.814836,1.1685633,2.1130509,-0.19441323,0.73059393,0.59401433,2.0394327,0.46737906,0.64275558,0.50691007,0.59591868,1.2215121,0.7809784,0.28914124,-0.022584248,0.18753379,0.16455766,0.41601568,1.1593518,0.9548887,0.26158131,0.54309888,0.50871874,-0.1743352,0.54278954,0.56688351,0.78922775,0.068846565,0.92756523,0.34263832,1.2106339,0.59313603,0.70370874,2.1667159,0.91899571,1.3971093,0.99292711,0.59782907,0.98308038,1.3084559,0.55686579,0.73543754,0.41500979,0.43707074,1.2259204,0.58127681,2.6890171,0.19767692,0.17950028,0.073124179
49,0.50205548,0.1476469,0.31664616,1.1688741,0.64865752,0.40473265,1.2050062,0.59824137,0.32800826,1.668206,0.48223006,0.27482721,-0.70630453,0.98754646,0.50112303,2.2487902,0.31930911,0.6303957,1.0880765,0.5264121,-0.36808017,0.08725314,0.47041178,1.3510633,0.47527619,0.6692266,1.1949282,0.20303954,0.46679299,0.15058441,-0.15738917,0.65656714,1.2571379,0.18824682,0.5347352,2.0412979,0.58597594,0.99970742,1.6163364,0.29476758,0.5807386,0.38123865,0.31452914,0.31421954,0.65173918,0.5358112,1.4684175,1.450874,0.99311088,0.12377605,1.814836,1.1685633,2.1130509,-0.19441323,0.73059393,0.59401433,2.0394327,0.46737906,0.64275558,0.50691007,0.59591868,1.2215121,0.7809784,0.28914124,-0.022584248,0.18753379,0.16455766,0.41601568,1.1593518,0.9548887,0.26158131,0.54309888,0.50871874,-0.1743352,0.54278954,0.56688351,0.78922775,0.068846565,0.92756523,0.34263832,1.2106339,0.59313603,0.70370874,2.1667159,0.91899571,1.3971093,0.99292711,0.59782907,0.98308038,1.3084559,0.55686579,0.73543754,0.41500979,0.43707074,1.2259204,0.58127681,2.6890171,0.19767692,0.17950028,0.073124179
50,0.50205548,0.1476469,0.31664616,1.1688741,0.64865752,0.40473265,1.2050062,0.59824137,0.32800826,1.668206,0.48223006,0.27482721,-0.70630453,0.98754646,0.50112303,2.2487902,0.31930911,0.6303957,1.0880765,0.5264121,-0.36808017,0.08725314,0.47041178,1.3510633,0.47527619,0.6692266,1.1949282,0.20303954,0.46679299,0.15058441,-0.15738917,0.65656714,1.2571379,0.18824682,0.5347352,2.0412979,0.58597594,0.99970742,1.6163364,0.29476758,0.5807386,0.38123865,0.31452914,0.31421954,0.65173918,0.5358112,1.4684175,1.450874,0.99311088,0.12377605,1.814836,1.1685633,2.1130509,-0.19441323,0.73059393,0.59401433,2.0394327,0.46737906,0.64275558,0.50691007,0.59591868,1.2215121,0.7809784,0.28914124,-0.022584248,0.18753379,0.16455766,0.41601568,1.1593518,0.9548887,0.26158131,0.54309888,0.50871874,-0.1743352,0.54278954,0.56688351,0.78922775,0.068846565,0.92756523,0.34263832,1.2106339,0.59313603,0.70370874,2.1667159,0.91899571,1.3971093,0.99292711,0.59782907,0.98308038,1.3084559,0.55686579,0.73543754,0.41500979,0.43707074,1.2259204,0.58127681,2.6890171,0.19767692,0.17950028,0.073124179
51,0.50205548,0.1476469,0.31664616,1.1688741,0.64865752,0.40473265,1.2050062,0.59824137,0.32800826,1.668206,0.48223006,0.27482721,-0.70630453,0.98754646,0.50112303,2.2487902,0.31930911,0.6303957,1.0880765,0.5264121,-0.36808017,0.08725314,0.47041178,1.3510633,0.47527619,0.6692266,1.1949282,0.20303954,0.46679299,0.15058441,-0.15738917,0.65656714,1.2571379,0.18824682,0.5347352,2.0412979,0.58597594,0.99970742,1.6163364,0.29476758,0.5807386,0.38123865,0.31452914,0.31421954,0.65173918,0.5358112,1.4684175,1.450874,0.99311088,0.12377605,1.814836,1.1685633,2.1130509,-0.19441323,0.73059393,0.59401433,2.0394327,0.46737906,0.64275558,0.50691007,0.59591868,1.2215121,0.7809784,0.28914124,-0.022584248,0.18753379,0.16455766,0.41601568,1.1593518,0.9548887,0.26158131,0.54309888,0.50871874,-0.1743352,0.54278954,0.56688351,0.78922775,0.068846565,0.92756523,0.34263832,1.2106339,0.59313603,0.70370874,2.1667159,0.91899571,1.3971093,0.99292711,0.59782907,0.98308038,1.3084559,0.55686579,0.73543754,0.41500979,0.43707074,1.2259204,0.58127681,2.6890171,0.19767692,0.17950028,0.073124179
52,0.50205548,0.1476469,0.31664616,1.1688741,0.64865752,0.40473265,1.2050062,0.59824137,0.32800826,1.668206,0.48223006,0.27482721,-0.70630453,0.98754646,0.50112303,2.2487902,0.31930911,0.6303957,1.0880765,0.5264121,-0.36808017,0.08725314,0.47041178,1.3510633,0.47527619,0.6692266,1.1949282,0.20303954,0.46679299,0.15058441,-0.15738917,0.65656714,1.2571379,0.18824682,0.5347352,2.0412979,0.58597594,0.99970742,1.6163364,0.29476758,0.5807386,0.38123865,0.31452914,0.31421954,0.65173918,0.5358112,1.4684175,1.450874,0.99311088,0.12377605,1.814836,1.1685633,2.1130509,-0.19441323,0.73059393,0.59401433,2.0394327,0.46737906,0.64275558,0.50691007,0.59591868,1.2215121,0.7809784,0.28914124,-0.022584248,0.18753379,0.16455766,0.41601568,1.1593518,0.9548887,0.26158131,0.54309888,0.50871874,-0.1743352,0.54278954,0.56688351,0.78922775,0.068846565,0.92756523,0.34263832,1.2106339,0.59313603,0.70370874,2.1667159,0.91899571,1.3971093,0.99292711,0.59782907,0.98308038,1.3084559,0.55686579,0.73543754,0.41500979,0.43707074,1.2259204,0.58127681,2.6890171,0.19767692,0.17950028,0.073124179
53,0.50205548,0.1476469,0.31664616,1.1688741,0.64865752,0.40473265,1.2050062,0.59824137,0.32800826,1.668206,0.48223006,0.27482721,-0.70630453,0.98754646,0.50112303,2.2487902,0.31930911,0.6303957,1.0880765,0.5264121,-0.36808017,0.08725314,0.47041178,1.3510633,0.47527619,0.6692266,1.1949282,0.20303954,0.46679299,0.15058441,-0.15738917,0.65656714,1.2571379,0.18824682,0.5347352,2.0412979,0.58597594,0.99970742,1.6163364,0.29476758,0.5807386,0.38123865,0.31452914,0.31421954,0.65173918,0.5358112,1.4684175,1.450874,0.99311088,0.12377605,1.814836,1.1685633,2.1130509,-0.19441323,0.73059393,0.59401433,2.0394327,0.46737906,0.64275558,0.50691007,0.59591868,1.2215121,0.7809784,0.28914124,-0.022584248,0.18753379,0.16455766,0.41601568,1.1593518,0.9548887,0.26158131,0.54309888,0.50871874,-0.1743352,0.54278954,0.56688351,0.78922775,0.068846565,0.92756523,0.34263832,1.2106339,0.59313603,0.70370874,2.1667159,0.91899571,1.3971093,0.99292711,0.59782907,0.98308038,1.3084559,0.55686579,0.73543754,0.41500979,0.43707074,1.2259204,0.58127681,2.6890171,0.19767692,0.17950028,0.073124179
54,0.50205548,0.1476469,0.31664616,1.1688741,0.64865752,0.40473265,1.2050062,0.59824137,0.32800826,1.668206,0.48223006,0.27482721,-0.70630453,0.98754646,0.50112303,2.2487902,0.31930911,0.6303957,1.0880765,0.5264121,-0.36808017,0.08725314,0.47041178,1.3510633,0.47527619,0.6692266,1.1949282,0.20303954,0.46679299,0.15058441,-0.15738917,0.65656714,1.2571379,0.18824682,0.5347352,2.0412979,0.58597594,0.99970742,1.6163364,0.29476758,0.5807386,0.38123865,0.31452914,0.31421954,0.65173918,0.5358112,1.4684175,1.450874,0.99311088,0.12377605,1.814836,1.1685633,2.1130509,-0.19441323,0.73059393,0.59401433,2.0394327,0.46737906,0.64275558,0.50691007,0.59591868,1.2215121,0.7809784,0.28914124,-0.022584248,0.18753379,0.16455766,0.41601568,1.1593518,0.9548887,0.26158131,0.54309888,0.50871874,-0.1743352,0.54278954,0.56688351,0.78922775,0.068846565,0.92756523,0.34263832,1.2106339,0.59313603,0.70370874,2.1667159,0.91899571,1.3971093,0.99292711,0.59782907,0.98308038,1.3084559,0.55686579,0.73543754,0.41500979,0.43707074,1.2259204,0.58127681,2.6890171,0.19767692,0.17950028,0.073124179
55,0.50205548,0.1476469,0.31664616,1.1688741,0.64865752,0.40473265,1.2050062,0.59824137,0.32800826,1.668206,0.48223006,0.27482721,-0.70630453,0.98754646,0.50112303,2.2487902,0.31930911,0.6303957,1.0880765,0.5264121,-0.36808017,0.08725314,0.47041178,1.3510633,0.47527619,0.6692266,1.1949282,0.20303954,0.46679299,0.15058441,-0.15738917,0.65656714,1.2571379,0.18824682,0.5347352,2.0412979,0.58597594,0.99970742,1.6163364,0.29476758,0.5807386,0.38123865,0.31452914,0.31421954,0.65173918,0.5358112,1.4684175,1.450874,0.99311088,0.12377605,1.814836,1.1685633,2.1130509,-0.19441323,0.73059393,0.59401433,2.0394327,0.46737906,0.64275558,0.50691007,0.59591868,1.2215121,0.7809784,0.28914124,-0.022584248,0.18753379,0.16455766,0.41601568,1.1593518,0.9548887,0.26158131,0.54309888,0.50871874,-0.1743352,0.54278954,0.56688351,0.78922775,0.068846565,0.92756523,0.34263832,1.2106339,0.59313603,0.70370874,2.1667159,0.91899571,1.3971093,0.99292711,0.59782907,0.98308038,1.3084559,0.55686579,0.73543754,0.41500979,0.43707074,1.2259204,0.58127681,2.6890171,0.19767692,0.17950028,0.073124179
56,0.50205548,0.1476469,0.31664616,1.1688741,0.64865752,0.40473265,1.2050062,0.59824137,0.32800826,1.668206,0.48223006,0.27482721,-0.70630453,0.98754646,0.50112303,2.2487902,0.31930911,0.6303957,1.0880765,0.5264121,-0.36808017,0.08725314,0.47041178,1.3510633,0.47527619,0.6692266,1.1949282,0.20303954,0.46679299,0.15058441,-0.15738917,0.65656714,1.2571379,0.18824682,0.5347352,2.0412979,0.58597594,0.99970742,1.6163364,0.29476758,0.5807386,0.38123865,0.31452914,0.31421954,0.65173918,0.5358112,1.4684175,1.450874,0.99311088,0.12377605,1.814836,1.1685633,2.1130509,-0.19441323,0.73059393,0.59401433,2.0394327,0.46737906,0.64275558,0.50691007,0.59591868,1.2215121,0.7809784,0.28914124,-0.022584248,0.18753379,0.16455766,0.41601568,1.1593518,0.9548887,0.26158131,0.54309888,0.50871874,-0.1743352,0.54278954,0.56688351,0.78922775,0.068846565,0.92756523,0.34263832,1.2106339,0.59313603,0.70370874,2.1667159,0.91899571,1.3971093,0.99292711,0.59782907,0.98308038,1.3084559,0.55686579,0.73543754,0.41500979,0.43707074,1.2259204,0.58127681,2.6890171,0.19767692,0.17950028,0.073124179
57,0.50205548,0.1476469,0.31664616,1.1688741,0.64865752,0.40473265,1.2050062,0.59824137,0.32800826,1.668206,0.48223006,0.27482721,-0.70630453,0.98754646,0.50112303,2.2487902,0.31930911,0.6303957,1.0880765,0.5264121,-0.36808017,0.08725314,0.47041178,1.3510633,0.47527619,0.6692266,1.1949282,0.20303954,0.46679299,0.15058441,-0.15738917,0.65656714,1.2571379,0.18824682,0.5347352,2.0412979,0.58597594,0.99970742,1.6163364,0.29476758,0.5807386,0.38123865,0.31452914,0.31421954,0.65173918,0.5358112,1.4684175,1.450874,0.99311088,0.12377605,1.814836,1.1685633,2.1130509,-0.19441323,0.73059393,0.59401433,2.0394327,0.46737906,0.64275558,0.50691007,0.59591868,1.2215121,0.7809784,0.28914124,-0.022584248,0.18753379,0.16455766,0.41601568,1.1593518,0.9548887,0.26158131,0.54309888,0.50871874,-0.1743352,0.54278954,0.56688351,0.78922775,0.068846565,0.92756523,0.34263832,1.2106339,0.59313603,0.70370874,2.1667159,0.91899571,1.3971093,0.99292711,0.59782907,0.98308038,1.3084559,0.55686579,0.73543754,0.41500979,0.43707074,1.2259204,0.58127681,2.6890171,0.19767692,0.17950028,0.073124179
58,0.50205548,0.1476469,0.31664616,1.1688741,0.64865752,0.40473265,1.2050062,0.59824137,0.32800826,1.668206,0.48223006,0.27482721,-0.70630453,0.98754646,0.50112303,2.2487902,0.31930911,0.6303957,1.0880765,0.5264121,-0.36808017,0.08725314,0.47041178,1.3510633,0.47527619,0.6692266,1.1949282,0.20303954,0.46679299,0.15058441,-0.15738917,0.65656714,1.2571379,0.18824682,0.5347352,2.0412979,0.58597594,0.99970742,1.6163364,0.29476758,0.5807386,0.38123865,0.31452914,0.31421954,0.65173918,0.5358112,1.4684175,1.450874,0.99311088,0.12377605,1.814836,1.1685633,2.1130509,-0.19441323,0.73059393,0.59401433,2.0394327,0.46737906,0.64275558,0.50691007,0.59591868,1.2215121,0.7809784,0.28914124,-0.022584248,0.18753379,0.16455766,0.41601568,1.1593518,0.9548887,0.26158131,0.54309888,0.50871874,-0.1743352,0.54278954,0.56688351,0.78922775,0.068846565,0.92756523,0.34263832,1.2106339,0.59313603,0.70370874,2.1667159,0.91899571,1.3971093,0.99292711,0.59782907,0.98308038,1.3084559,0.55686579,0.73543754,0.41500979,0.43707074,1.2259204,0.58127681,2.6890171,0.19767692,0.17950028,0.073124179
59,0.50205548,0.1476469,0.31664616,1.1688741,0.64865752,0.40473265,1.2050062,0.59824137,0.32800826,1.668206,0.48223006,0.27482721,-0.70630453,0.98754646,0.50112303,2.2487902,0.31930911,0.6303957,1.0880765,0.5264121,-0.36808017,0.08725314,0.47041178,1.3510633,0.47527619,0.6692266,1.1949282,0.20303954,0.46679299,0.15058441,-0.15738917,0.65656714,1.2571379,0.18824682,0.5347352,2.0412979,0.58597594,0.99970742,1.6163364,0.29476758,0.5807386,0.38123865,0.31452914,0.31421954,0.65173918,0.5358112,1.4684175,1.450874,0.99311088,0.12377605,1.814836,1.1685633,2.1130509,-0.19441323,0.73059393,0.59401433,2.0394327,0.46737906,0.64275558,0.50691007,0.59591868,1.2215121,0.7809784,0.28914124,-0.022584248,0.18753379,0.16455766,0.41601568,1.1593518,0.9548887,0.26158131,0.54309888,0.50871874,-0.1743352,0.54278954,0.56688351,0.78922775,0.068846565,0.92756523,0.34263832,1.2106339,0.59313603,0.70370874,2.1667159,0.91899571,1.3971093,0.99292711,0.59782907,0.98308038,1.3084559,0.55686579,0.73543754,0.41500979,0.43707074,1.2259204,0.58127681,2.6890171,0.19767692,0.17950028,0.073124179
60,0.50205548,0.1476469,0.31664616,1.1688741,0.64865752,0.40473265,1.2050062,0.59824137,0.32800826,1.668206,0.48223006,0.27482721,-0.70630453,0.98754646,0.50112303,2.2487902,0.31930911,0.6303957,1.0880765,0.5264121,-0.36808017,0.08725314,0.47041178,1.3510633,0.47527619,0.6692266,1.1949282,0.20303954,0.46679299,0.15058441,-0.15738917,0.65656714,1.2571379,0.18824682,0.5347352,2.0412979,0.58597594,0.99970742,1.6163364,0.29476758,0.5807386,0.38123865,0.31452914,0.31421954,0.65173918,0.5358112,1.4684175,1.450874,0.99311088,0.12377605,1.814836,1.1685633,2.1130509,-0.19441323,0.73059393,0.59401433,2.0394327,0.46737906,0.64275558,0.50691007,0.59591868,1.2215121,0.7809784,0.28914124,-0.022584248,0.18753379,0.16455766,0.41601568,1.1593518,0.9548887,0.26158131,0.54309888,0.50871874,-0.1743352,0.54278954,0.56688351,0.78922775,0.068846565,0.92756523,0.34263832,1.2106339,0.59313603,0.70370874,2.1667159,0.91899571,1.3971093,0.99292711,0.59782907,0.98308038,1.3084559,0.55686579,0.73543754,0.41500979,0.43707074,1.2259204,0.58127681,2.6890171,0.19767692,0.17950028,0.073124179
61,0.50205548,0.1476469,0.31664616,1.1688741,0.64865752,0.40473265,1.2050062,0.59824137,0.32800826,1.668206,0.48223006,0.27482721,-0.70630453,0.98754646,0.50112303,2.2487902,0.31930911,0.6303957,1.0880765,0.5264121,-0.36808017,0.08725314,0.47041178,1.3510633,0.47527619,0.6692266,1.1949282,0.20303954,0.46679299,0.15058441,-0.15738917,0.65656714,1.2571379,0.18824682,0.5347352,2.0412979,0.58597594,0.99970742,1.6163364,0.29476758,0.5807386,0.38123865,0.31452914,0.31421954,0.65173918,0.5358112,1.4684175,1.450874,0.99311088,0.12377605,1.814836,1.1685633,2.1130509,-0.19441323,0.73059393,0.59401433,2.0394327,0.46737906,0.64275558,0.50691007,0.59591868,1.2215121,0.7809784,0.28914124,-0.022584248,0.18753379,0.16455766,0.41601568,1.1593518,0.9548887,0.26158131,0.54309888,0.50871874,-0.1743352,0.54278954,0.56688351,0.78922775,0.068846565,0.92756523,0.34263832,1.2106339,0.59313603,0.70370874,2.1667159,0.91899571,1.3971093,0.99292711,0.59782907,0.98308038,1.3084559,0.55686579,0.73543754,0.41500979,0.43707074,1.2259204,0.58127681,2.6890171,0.19767692,0.17950028,0.073124179
62,0.50205548,0.1476469,0.31664616,1.1688741,0.64865752,0.40473265,1.2050062,0.59824137,0.32800826,1.668206,0.48223006,0.27482721,-0.70630453,0.98754646,0.50112303,2.2487902,0.31930911,0.6303957,1.0880765,0.5264121,-0.36808017,0.08725314,0.47041178,1.3510633,0.47527619,0.6692266,1.1949282,0.20303954,0.46679299,0.15058441,-0.15738917,0.65656714,1.2571379,0.18824682,0.5347352,2.0412979,0.58597594,0.99970742,1.6163364,0.29476758,0.5807386,0.38123865,0.31452914,0.31421954,0.65173918,0.5358112,1.4684175,1.450874,0.99311088,0.12377605,1.814836,1.1685633,2.1130509,-0.19441323,0.73059393,0.59401433,2.0394327,0.46737906,0.64275558,0.50691007,0.59591868,1.2215121,0.7809784,0.28914124,-0.022584248,0.18753379,0.16455766,0.41601568,1.1593518,0.9548887,0.26158131,0.54309888,0.50871874,-0.1743352,0.54278954,0.56688351,0.78922775,0.068846565,0.92756523,0.34263832,1.2106339,0.59313603,0.70370874,2.1667159,0.91899571,1.3971093,0.99292711,0.59782907,0.98308038,1.3084559,0.55686579,0.73543754,0.41500979,0.43707074,1.2259204,0.58127681,2.6890171,0.19767692,0.17950028,0.073124179
63,0.50205548,0.1476469,0.31664616,1.1688741,0.64865752,0.40473265,1.2050062,0.59824137,0.32800826,1.668206,0.48223006,0.27482721,-0.70630453,0.98754646,0.50112303,2.2487902,0.31930911,0.6303957,1.0880765,0.5264121,-0.36808017,0.08725314,0.47041178,1.3510633,0.47527619,0.6692266,1.1949282,0.20303954,0.46679299,0.15058441,-0.15738917,0.65656714,1.2571379,0.18824682,0.5347352,2.0412979,0.58597594,0.99970742,1.6163364,0.29476758,0.5807386,0.38123865,0.31452914,0.31421954,0.65173918,0.5358112,1.4684175,1.450874,0.99311088,0.12377605,1.814836,1.1685633,2.1130509,-0.19441323,0.73059393,0.59401433,2.0394327,0.46737906,0.64275558,0.50691007,0.59591868,1.2215121,0.7809784,0.28914124,-0.022584248,0.18753379,0.16455766,0.41601568,1.1593518,0.9548887,0.26158131,0.54309888,0.50871874,-0.1743352,0.54278954,0.56688351,0.78922775,0.068846565,0.92756523,0.34263832,1.2106339,0.59313603,0.70370874,2.1667159,0.91899571,1.3971093,0.99292711,0.59782907,0.98308038,1.3084559,0.55686579,0.73543754,0.41500979,0.43707074,1.2259204,0.58127681,2.6890171,0.19767692,0.17950028,0.073124179
64,0.50205548,0.1476469,0.31664616,1.1688741,0.64865752,0.40473265,1.2050062,0.59824137,0.32800826,1.668206,0.48223006,0.27482721,-0.70630453,0.98754646,0.50112303,2.2487902,0.31930911,0.6303957,1.0880765,0.5264121,-0.36808017,0.08725314,0.47041178,1.3510633,0.47527619,0.6692266,1.1949282,0.20303954,0.46679299,0.15058441,-0.15738917,0.65656714,1.2571379,0.18824682,0.5347352,2.0412979,0.58597594,0.99970742,1.6163364,0.29476758,0.5807386,0.38123865,0.31452914,0.31421954,0.65173918,0.5358112,1.4684175,1.450874,0.99311088,0.12377605,1.814836,1.1685633,2.1130509,-0.19441323,0.73059393,0.59401433,2.0394327,0.46737906,0.64275558,0.50691007,0.59591868,1.2215121,0.7809784,0.28914124,-0.022584248,0.18753379,0.16455766,0.41601568,1.1593518,0.9548887,0.26158131,0.54309888,0.50871874,-0.1743352,0.54278954,0.56688351,0.78922775,0.068846565,0.92756523,0.34263832,1.2106339,0.59313603,0.70370874,2.1667159,0.91899571,1.3971093,0.99292711,0.59782907,0.98308038,1.3084559,0.55686579,0.73543754,0.41500979,0.43707074,1.2259204,0.58127681,2.6890171,0.19767692,0.17950028,0.073124179
65,0.50205548,0.1476469,0.31664616,1.1688741,0.64865752,0.40473265,1.2050062,0.59824137,0.32800826,1.668206,0.48223006,0.27482721,-0.70630453,0.98754646,0.50112303,2.2487902,0.31930911,0.6303957,1.0880765,0.5264121,-0.36808017,0.08725314,0.47041178,1.3510633,0.47527619,0.6692266,1.1949282,0.20303954,0.46679299,0.15058441,-0.15738917,0.65656714,1.2571379,0.18824682,0.5347352,2.0412979,0.58597594,0.99970742,1.6163364,0.29476758,0.5807386,0.38123865,0.31452914,0.31421954,0.65173918,0.5358112,1.4684175,1.450874,0.99311088,0.12377605,1.814836,1.1685633,2.1130509,-0.19441323,0.73059393,0.59401433,2.0394327,0.46737906,0.64275558,0.50691007,0.59591868,1.2215121,0.7809784,0.28914124,-0.022584248,0.18753379,0.16455766,0.41601568,1.1593518,0.9548887,0.26158131,0.54309888,0.50871874,-0.1743352,0.54278954,0.56688351,0.78922775,0.068846565,0.92756523,0.34263832,1.2106339,0.59313603,0.70370874,2.1667159,0.91899571,1.3971093,0.99292711,0.59782907,0.98308038,1.3084559,0.55686579,0.73543754,0.41500979,0.43707074,1.2259204,0.58127681,2.6890171,0.19767692,0.17950028,0.073124179
66,0.50205548,0.1476469,0.31664616,1.1688741,0.64865752,0.40473265,1.2050062,0.59824137,0.32800826,1.668206,0.48223006,0.27482721,-0.70630453,0.98754646,0.50112303,2.2487902,0.31930911,0.6303957,1.0880765,0.5264121,-0.36808017,0.08725314,0.47041178,1.3510633,0.47527619,0.6692266,1.1949282,0.20303954,0.46679299,0.15058441,-0.15738917,0.65656714,1.2571379,0.18824682,0.5347352,2.0412979,0.58597594,0.99970742,1.6163364,0.29476758,0.5807386,0.38123865,0.31452914,0.31421954,0.65173918,0.5358112,1.4684175,1.450874,0.99311088,0.12377605,1.814836,1.1685633,2.1130509,-0.19441323,0.73059393,0.59401433,2.0394327,0.46737906,0.64275558,0.50691007,0.59591868,1.2215121,0.7809784,0.28914124,-0.022584248,0.18753379,0.16455766,0.41601568,1.1593518,0.9548887,0.26158131,0.54309888,0.50871874,-0.1743352,0.54278954,0.56688351,0.78922775,0.068846565,0.92756523,0.34263832,1.2106339,0.59313603,0.70370874,2.1667159,0.91899571,1.3971093,0.99292711,0.59782907,0.98308038,1.3084559,0.55686579,0.73543754,0.41500979,0.43707074,1.2259204,0.58127681,2.6890171,0.19767692,0.17950028,0.073124179
67,0.50205548,0.1476469,0.31664616,1.1688741,0.64865752,0.40473265,1.2050062,0.59824137,0.32800826,1.668206,0.48223006,0.27482721,-0.70630453,0.98754646,0.50112303,2.2487902,0.31930911,0.6303957,1.0880765,0.5264121,-0.36808017,0.08725314,0.47041178,1.3510633,0.47527619,0.6692266,1.1949282,0.20303954,0.46679299,0.15058441,-0.15738917,0.65656714,1.2571379,0.18824682,0.5347352,2.0412979,0.58597594,0.99970742,1.6163364,0.29476758,0.5807386,0.38123865,0.31452914,0.31421954,0.65173918,0.5358112,1.4684175,1.450874,0.99311088,0.12377605,1.814836,1.1685633,2.1130509,-0.19441323,0.73059393,0.59401433,2.0394327,0.46737906,0.64275558,0.50691007,0.59591868,1.2215121,0.7809784,0.28914124,-0.022584248,0.18753379,0.16455766,0.41601568,1.1593518,0.9548887,0.26158131,0.54309888,0.50871874,-0.1743352,0.54278954,0.56688351,0.78922775,0.068846565,0.92756523,0.34263832,1.2106339,0.59313603,0.70370874,2.1667159,0.91899571,1.3971093,0.99292711,0.59782907,0.98308038,1.3084559,0.55686579,0.73543754,0.41500979,0.43707074,1.2259204,0.58127681,2.6890171,0.19767692,0.17950028,0.073124179
68,0.50205548,0.1476469,0.31664616,1.1688741,0.64865752,0.40473265,1.2050062,0.59824137,0.32800826,1.668206,0.48223006,0.27482721,-0.70630453,0.98754646,0.50112303,2.2487902,0.31930911,0.6303957,1.0880765,0.5264121,-0.36808017,0.08725314,0.47041178,1.3510633,0.47527619,0.6692266,1.1949282,0.20303954,0.46679299,0.15058441,-0.15738917,0.65656714,1.2571379,0.18824682,0.5347352,2.0412979,0.58597594,0.99970742,1.6163364,0.29476758,0.5807386,0.38123865,0.31452914,0.31421954,0.65173918,0.5358112,1.4684175,1.450874,0.99311088,0.12377605,1.814836,1.1685633,2.1130509,-0.19441323,0.73059393,0.59401433,2.0394327,0.46737906,0.64275558,0.50691007,0.59591868,1.2215121,0.7809784,0.28914124,-0.022584248,0.18753379,0.16455766,0.41601568,1.1593518,0.9548887,0.26158131,0.54309888,0.50871874,-0.1743352,0.54278954,0.56688351,0.78922775,0.068846565,0.92756523,0.34263832,1.2106339,0.59313603,0.70370874,2.1667159,0.91899571,1.3971093,0.99292711,0.59782907,0.98308038,1.3084559,0.55686579,0.73543754,0.41500979,0.43707074,1.2259204,0.58127681,2.6890171,0.19767692,0.17950028,0.073124179
69,0.50205548,0.1476469,0.31664616,1.1688741,0.64865752,0.40473265,1.2050062,0.59824137,0.32800826,1.668206,0.48223006,0.27482721,-0.70630453,0.98754646,0.50112303,2.2487902,0.31930911,0.6303957,1.0880765,0.5264121,-0.36808017,0.08725314,0.47041178,1.3510633,0.47527619,0.6692266,1.1949282,0.20303954,0.46679299,0.15058441,-0.15738917,0.65656714,1.2571379,0.18824682,0.5347352,2.0412979,0.58597594,0.99970742,1.6163364,0.29476758,0.5807386,0.38123865,0.31452914,0.31421954,0.65173918,0.5358112,1.4684175,1.450874,0.99311088,0.12377605,1.814836,1.1685633,2.1130509,-0.19441323,0.73059393,0.59401433,2.0394327,0.46737906,0.64275558,0.50691007,0.59591868,1.2215121,0.7809784,0.28914124,-0.022584248,0.18753379,0.16455766,0.41601568,1.1593518,0.9548887,0.26158131,0.54309888,0.50871874,-0.1743352,0.54278954,0.56688351,0.78922775,0.068846565,0.92756523,0.34263832,1.2106339,0.59313603,0.70370874,2.1667159,0.91899571,1.3971093,0.99292711,0.59782907,0.98308038,1.3084559,0.55686579,0.73543754,0.41500979,0.43707074,1.2259204,0.58127681,2.6890171,0.19767692,0.17950028,0.073124179
70,0.50205548,0.1476469,0.31664616,1.1688741,0.64865752,0.40473265,1.2050062,0.59824137,0.32800826,1.668206,0.48223006,0.27482721,-0.70630453,0.98754646,0.50112303,2.2487902,0.31930911,0.6303957,1.0880765,0.5264121,-0.36808017,0.08725314,0.47041178,1.3510633,0.47527619,0.6692266,1.1949282,0.20303954,0.46679299,0.15058441,-0.15738917,0.65656714,1.2571379,0.18824682,0.5347352,2.0412979,0.58597594,0.99970742,1.6163364,0.29476758,0.5807386,0.38123865,0.31452914,0.31421954,0.65173918,0.5358112,1.4684175,1.450874,0.99311088,0.12377605,1.814836,1.1685633,2.1130509,-0.19441323,0.73059393,0.59401433,2.0394327,0.46737906,0.64275558,0.50691007,0.59591868,1.2215121,0.7809784,0.28914124,-0.022584248,0.18753379,0.16455766,0.41601568,1.1593518,0.9548887,0.26158131,0.54309888,0.50871874,-0.1743352,0.54278954,0.56688351,0.78922775,0.068846565,0.92756523,0.34263832,1.2106339,0.59313603,0.70370874,2.1667159,0.91899571,1.3971093,0.99292711,0.59782907,0.98308038,1.3084559,0.55686579,0.73543754,0.41500979,0.43707074,1.2259204,0.58127681,2.6890171,0.19767692,0.17950028,0.073124179
71,0.50205548,0.1476469,0.31664616,1.1688741,0.64865752,0.40473265,1.2050062,0.59824137,0.32800826,1.668206,0.48223006,0.27482721,-0.70630453,0.98754646,0.50112303,2.2487902,0.31930911,0.6303957,1.0880765,0.5264121,-0.36808017,0.08725314,0.47041178,1.3510633,0.47527619,0.6692266,1.1949282,0.20303954,0.46679299,0.15058441,-0.15738917,0.65656714,1.2571379,0.18824682,0.5347352,2.0412979,0.58597594,0.99970742,1.6163364,0.29476758,0.5807386,0.38123865,0.31452914,0.31421954,0.65173918,0.5358112,1.4684175,1.450874,0.99311088,0.12377605,1.814836,1.1685633,2.1130509,-0.19441323,0.73059393,0.59401433,2.0394327,0.46737906,0.64275558,0.50691007,0.59591868,1.2215121,0.7809784,0.28914124,-0.022584248,0.18753379,0.16455766,0.41601568,1.1593518,0.9548887,0.26158131,0.54309888,0.50871874,-0.1743352,0.54278954,0.56688351,0.78922775,0.068846565,0.92756523,0.34263832,1.2106339,0.59313603,0.70370874,2.1667159,0.91899571,1.3971093,0.99292711,0.59782907,0.98308038,1.3084559,0.55686579,0.73543754,0.41500979,0.43707074,1.2259204,0.58127681,2.6890171,0.19767692,0.17950028,0.073124179
72,0.50205548,0.1476469,0.31664616,1.1688741,0.64865752,0.40473265,1.2050062,0.59824137,0.32800826,1.668206,0.48223006,0.27482721,-0.70630453,0.98754646,0.50112303,2.2487902,0.31930911,0.6303957,1.0880765,0.5264121,-0.36808017,0.08725314,0.47041178,1.3510633,0.47527619,0.6692266,1.1949282,0.20303954,0.46679299,0.15058441,-0.15738917,0.65656714,1.2571379,0.18824682,0.5347352,2.0412979,0.58597594,0.99970742,1.6163364,0.29476758,0.5807386,0.38123865,0.31452914,0.31421954,0.65173918,0.5358112,1.4684175,1.450874,0.99311088,0.12377605,1.814836,1.1685633,2.1130509,-0.19441323,0.73059393,0.59401433,2.0394327,0.46737906,0.64275558,0.50691007,0.59591868,1.2215121,0.7809784,0.28914124,-0.022584248,0.18753379,0.16455766,0.41601568,1.1593518,0.9548887,0.26158131,0.54309888,0.50871874,-0.1743352,0.54278954,0.56688351,0.78922775,0.068846565,0.92756523,0.34263832,1.2106339,0.59313603,0.70370874,2.1667159,0.91899571,1.3971093,0.99292711,0.59782907,0.98308038,1.3084559,0.55686579,0.73543754,0.41500979,0.43707074,1.2259204,0.58127681,2.6890171,0.19767692,0.17950028,0.073124179
73,0.50205548,0.1476469,0.31664616,1.1688741,0.64865752,0.40473265,1.2050062,0.59824137,0.32800826,1.668206,0.48223006,0.27482721,-0.70630453,0.98754646,0.50112303,2.2487902,0.31930911,0.6303957,1.0880765,0.5264121,-0.36808017,0.08725314,0.47041178,1.3510633,0.47527619,0.6692266,1.1949282,0.20303954,0.46679299,0.15058441,-0.15738917,0.65656714,1.2571379,0.18824682,0.5347352,2.0412979,0.58597594,0.99970742,1.6163364,0.29476758,0.5807386,0.38123865,0.31452914,0.31421954,0.65173918,0.5358112,1.4684175,1.450874,0.99311088,0.12377605,1.814836,1.1685633,2.1130509,-0.19441323,0.73059393,0.59401433,2.0394327,0.46737906,0.64275558,0.50691007,0.59591868,1.2215121,0.7809784,0.28914124,-0.022584248,0.18753379,0.16455766,0.41601568,1.1593518,0.9548887,0.26158131,0.54309888,0.50871874,-0.1743352,0.54278954,0.56688351,0.78922775,0.068846565,0.92756523,0.34263832,1.2106339,0.59313603,0.70370874,2.1667159,0.91899571,1.3971093,0.99292711,0.59782907,0.98308038,1.3084559,0.55686579,0.73543754,0.41500979,0.43707074,1.2259204,0.58127681,2.6890171,0.19767692,0.17950028,0.073124179
74,0.50205548,0.1476469,0.31664616,1.1688741,0.64865752,0.40473265,1.2050062,0.59824137,0.32800826,1.668206,0.48223006,0.27482721,-0.70630453,0.98754646,0.50112303,2.2487902,0.31930911,0.6303957,1.0880765,0.5264121,-0.36808017,0.08725314,0.47041178,1.3510633,0.47527619,0.6692266,1.1949282,0.20303954,0.46679299,0.15058441,-0.15738917,0.65656714,1.2571379,0.18824682,0.5347352,2.0412979,0.58597594,0.99970742,1.6163364,0.29476758,0.5807386,0.38123865,0.31452914,0.31421954,0.65173918,0.5358112,1.4684175,1.450874,0.99311088,0.12377605,1.814836,1.1685633,2.1130509,-0.19441323,0.73059393,0.59401433,2.0394327,0.46737906,0.64275558,0.50691007,0.59591868,1.2215121,0.7809784,0.28914124,-0.022584248,0.18753379,0.16455766,0.41601568,1.1593518,0.9548887,0.26158131,0.54309888,0.50871874,-0.1743352,0.54278954,0.56688351,0.78922775,0.068846565,0.92756523,0.34263832,1.2106339,0.59313603,0.70370874,2.1667159,0.91899571,1.3971093,0.99292711,0.59782907,0.98308038,1.3084559,0.55686579,0.73543754,0.41500979,0.43707074,1.2259204,0.58127681,2.6890171,0.19767692,0.17950028,0.073124179
75,0.50205548,0.1476469,0.31664616,1.1688741,0.64865752,0.40473265,1.2050062,0.59824137,0.32800826,1.668206,0.48223006,0.27482721,-0.70630453,0.98754646,0.50112303,2.2487902,0.31930911,0.6303957,1.0880765,0.5264121,-0.36808017,0.08725314,0.47041178,1.3510633,0.47527619,0.6692266,1.1949282,0.20303954,0.46679299,0.15058441,-0.15738917,0.65656714,1.2571379,0.18824682,0.5347352,2.0412979,0.58597594,0.99970742,1.6163364,0.29476758,0.5807386,0.38123865,0.31452914,0.31421954,0.65173918,0.5358112,1.4684175,1.450874,0.99311088,0.12377605,1.814836,1.1685633,2.1130509,-0.19441323,0.73059393,0.59401433,2.0394327,0.46737906,0.64275558,0.50691007,0.59591868,1.2215121,0.7809784,0.28914124,-0.022584248,0.18753379,0.16455766,0.41601568,1.1593518,0.9548887,0.26158131,0.54309888,0.50871874,-0.1743352,0.54278954,0.56688351,0.78922775,0.068846565,0.92756523,0.34263832,1.2106339,0.59313603,0.70370874,2.1667159,0.91899571,1.3971093,0.99292711,0.59782907,0.98308038,1.3084559,0.55686579,0.73543754,0.41500979,0.43707074,1.2259204,0.58127681,2.6890171,0.19767692,0.17950028,0.073124179
76,0.50205548,0.1476469,0.31664616,1.1688741,0.64865752,0.40473265,1.2050062,0.59824137,0.32800826,1.668206,0.48223006,0.27482721,-0.70630453,0.98754646,0.50112303,2.2487902,0.31930911,0.6303957,1.0880765,0.5264121,-0.36808017,0.08725314,0.47041178,1.3510633,0.47527619,0.6692266,1.1949282,0.20303954,0.46679299,0.15058441,-0.15738917,0.65656714,1.2571379,0.18824682,0.5347352,2.0412979,0.58597594,0.99970742,1.6163364,0.29476758,0.5807386,0.38123865,0.31452914,0.31421954,0.65173918,0.5358112,1.4684175,1.450874,0.99311088,0.12377605,1.814836,1.1685633,2.1130509,-0.19441323,0.73059393,0.59401433,2.0394327,0.46737906,0.64275558,0.50691007,0.59591868,1.2215121,0.7809784,0.28914124,-0.022584248,0.18753379,0.16455766,0.41601568,1.1593518,0.9548887,0.26158131,0.54309888,0.50871874,-0.1743352,0.54278954,0.56688351,0.78922775,0.068846565,0.92756523,0.34263832,1.2106339,0.59313603,0.70370874,2.1667159,0.91899571,1.3971093,0.99292711,0.59782907,0.98308038,1.3084559,0.55686579,0.73543754,0.41500979,0.43707074,1.2259204,0.58127681,2.6890171,0.19767692,0.17950028,0.073124179
77,0.50205548,0.1476469,0.31664616,1.1688741,0.64865752,0.40473265,1.2050062,0.59824137,0.32800826,1.668206,0.48223006,0.27482721,-0.70630453,0.98754646,0.50112303,2.2487902,0.31930911,0.6303957,1.0880765,0.5264121,-0.36808017,0.08725314,0.47041178,1.3510633,0.47527619,0.6692266,1.1949282,0.20303954,0.46679299,0.15058441,-0.15738917,0.65656714,1.2571379,0.18824682,0.5347352,2.0412979,0.58597594,0.99970742,1.6163364,0.29476758,0.5807386,0.38123865,0.31452914,0.31421954,0.65173918,0.5358112,1.4684175,1.450874,0.99311088,0.12377605,1.814836,1.1685633,2.1130509,-0.19441323,0.73059393,0.59401433,2.0394327,0.46737906,0.64275558,0.50691007,0.59591868,1.2215121,0.7809784,0.28914124,-0.022584248,0.18753379,0.16455766,0.41601568,1.1593518,0.9548887,0.26158131,0.54309888,0.50871874,-0.1743352,0.54278954,0.56688351,0.78922775,0.068846565,0.92756523,0.34263832,1.2106339,0.59313603,0.70370874,2.1667159,0.91899571,1.3971093,0.99292711,0.59782907,0.98308038,1.3084559,0.55686579,0.73543754,0.41500979,0.43707074,1.2259204,0.58127681,2.6890171,0.19767692,0.17950028,0.073124179
78,0.50205548,0.1476469,0.31664616,1.1688741,0.64865752,0.40473265,1.2050062,0.59824137,0.32800826,1.668206,0.48223006,0.27482721,-0.70630453,0.98754646,0.50112303,2.2487902,0.31930911,0.6303957,1.0880765,0.5264121,-0.36808017,0.08725314,0.47041178,1.3510633,0.47527619,0.6692266,1.1949282,0.20303954,0.46679299,0.15058441,-0.15738917,0.65656714,1.2571379,0.18824682,0.5347352,2.0412979,0.58597594,0.99970742,1.6163364,0.29476758,0.5807386,0.38123865,0.31452914,0.31421954,0.65173918,0.5358112,1.4684175,1.450874,0.99311088,0.12377605,1.814836,1.1685633,2.1130509,-0.19441323,0.73059393,0.59401433,2.0394327,0.46737906,0.64275558,0.50691007,0.59591868,1.2215121,0.7809784,0.28914124,-0.022584248,0.18753379,0.16455766,0.41601568,1.1593518,0.9548887,0.26158131,0.54309888,0.50871874,-0.1743352,0.54278954,0.56688351,0.78922775,0.068846565,0.92756523,0.34263832,1.2106339,0.59313603,0.70370874,2.1667159,0.91899571,1.3971093,0.99292711,0.59782907,0.98308038,1.3084559,0.55686579,0.73543754,0.41500979,0.43707074,1.2259204,0.58127681,2.6890171,0.19767692,0.17950028,0.073124179
79,0.50205548,0.1476469,0.31664616,1.1688741,0.64865752,0.40473265,1.2050062,0.59824137,0.32800826,1.668206,0.48223006,0.27482721,-0.70630453,0.98754646,0.50112303,2.2487902,0.31930911,0.6303957,1.0880765,0.5264121,-0.36808017,0.08725314,0.47041178,1.3510633,0.47527619,0.6692266,1.1949282,0.20303954,0.46679299,0.15058441,-0.15738917,0.65656714,1.2571379,0.18824682,0.5347352,2.0412979,0.58597594,0.99970742,1.6163364,0.29476758,0.5807386,0.38123865,0.31452914,0.31421954,0.65173918,0.5358112,1.4684175,1.450874,0.99311088,0.12377605,1.814836,1.1685633,2.1130509,-0.19441323,0.73059393,0.59401433,2.0394327,0.46737906,0.64275558,0.50691007,0.59591868,1.2215121,0.7809784,0.28914124,-0.022584248,0.18753379,0.16455766,0.41601568,1.1593518,0.9548887,0.26158131,0.54309888,0.50871874,-0.1743352,0.54278954,0.56688351,0.78922775,0.068846565,0.92756523,0.34263832,1.2106339,0.59313603,0.70370874,2.1667159,0.91899571,1.3971093,0.99292711,0.59782907,0.98308038,1.3084559,0.55686579,0.73543754,0.41500979,0.43707074,1.2259204,0.58127681,2.6890171,0.19767692,0.17950028,0.073124179
80,0.50205548,0.1476469,0.31664616,1.1688741,0.64865752,0.40473265,1.2050062,0.59824137,0.32800826,1.668206,0.48223006,0.27482721,-0.70630453,0.98754646,0.50112303,2.2487902,0.31930911,0.6303957,1.0880765,0.5264121,-0.36808017,0.08725314,0.47041178,1.3510633,0.47527619,0.6692266,1.1949282,0.20303954,0.46679299,0.15058441,-0.15738917,0.65656714,1.2571379,0.18824682,0.5347352,2.0412979,0.58597594,0.99970742,1.6163364,0.29476758,0.5807386,0.38123865,0.31452914,0.31421954,0.65173918,0.5358112,1.4684175,1.450874,0.99311088,0.12377605,1.814836,1.1685633,2.1130509,-0.19441323,0.73059393,0.59401433,2.0394327,0.46737906,0.64275558,0.50691007,0.59591868,1.2215121,0.7809784,0.28914124,-0.022584248,0.18753379,0.16455766,0.41601568,1.1593518,0.9548887,0.26158131,0.54309888,0.50871874,-0.1743352,0.54278954,0.56688351,0.78922775,0.068846565,0.92756523,0.34263832,1.2106339,0.59313603,0.70370874,2.1667159,0.91899571,1.3971093,0.99292711,0.59782907,0.98308038,1.3084559,0.55686579,0.73543754,0.41500979,0.43707074,1.2259204,0.58127681,2.6890171,0.19767692,0.17950028,0.073124179
81,0.50205548,0.1476469,0.31664616,1.1688741,0.64865752,0.40473265,1.2050062,0.59824137,0.32800826,1.668206,0.48223006,0.27482721,-0.70630453,0.98754646,0.50112303,2.2487902,0.31930911,0.6303957,1.0880765,0.5264121,-0.36808017,0.08725314,0.47041178,1.3510633,0.47527619,0.6692266,1.1949282,0.20303954,0.46679299,0.15058441,-0.15738917,0.65656714,1.2571379,0.18824682,0.5347352,2.0412979,0.58597594,0.99970742,1.6163364,0.29476758,0.5807386,0.38123865,0.31452914,0.31421954,0.65173918,0.5358112,1.4684175,1.450874,0.99311088,0.12377605,1.814836,1.1685633,2.1130509,-0.19441323,0.73059393,0.59401433,2.0394327,0.46737906,0.64275558,0.50691007,0.59591868,1.2215121,0.7809784,0.28914124,-0.022584248,0.18753379,0.16455766,0.41601568,1.1593518,0.9548887,0.26158131,0.54309888,0.50871874,-0.1743352,0.54278954,0.56688351,0.78922775,0.068846565,0.92756523,0.34263832,1.2106339,0.59313603,0.70370874,2.1667159,0.91899571,1.3971093,0.99292711,0.59782907,0.98308038,1.3084559,0.55686579,0.73543754,0.41500979,0.43707074,1.2259204,0.58127681,2.6890171,0.19767692,0.17950028,0.073124179
82,0.50205548,0.1476469,0.31664616,1.1688741,0.64865752,0.40473265,1.2050062,0.59824137,0.32800826,1.668206,0.48223006,0.27482721,-0.70630453,0.98754646,0.50112303,2.2487902,0.31930911,0.6303957,1.0880765,0.5264121,-0.36808017,0.08725314,0.47041178,1.3510633,0.47527619,0.6692266,1.1949282,0.20303954,0.46679299,0.15058441,-0.15738917,0.65656714,1.2571379,0.18824682,0.5347352,2.0412979,0.58597594,0.99970742,1.6163364,0.29476758,0.5807386,0.38123865,0.31452914,0.31421954,0.65173918,0.5358112,1.4684175,1.450874,0.99311088,0.12377605,1.814836,1.1685633,2.1130509,-0.19441323,0.73059393,0.59401433,2.0394327,0.46737906,0.64275558,0.50691007,0.59591868,1.2215121,0.7809784,0.28914124,-0.022584248,0.18753379,0.16455766,0.41601568,1.1593518,0.9548887,0.26158131,0.54309888,0.50871874,-0.1743352,0.54278954,0.56688351,0.78922775,0.068846565,0.92756523,0.34263832,1.2106339,0.59313603,0.70370874,2.1667159,0.91899571,1.3971093,0.99292711,0.59782907,0.98308038,1.3084559,0.55686579,0.73543754,0.41500979,0.43707074,1.2259204,0.58127681,2.6890171,0.19767692,0.17950028,0.073124179
83,0.50205548,0.1476469,0.31664616,1.1688741,0.64865752,0.40473265,1.2050062,0.59824137,0.32800826,1.668206,0.48223006,0.27482721,-0.70630453,0.98754646,0.50112303,2.2487902,0.31930911,0.6303957,1.0880765,0.5264121,-0.36808017,0.08725314,0.47041178,1.3510633,0.47527619,0.6692266,1.1949282,0.20303954,0.46679299,0.15058441,-0.15738917,0.65656714,1.2571379,0.18824682,0.5347352,2.0412979,0.58597594,0.99970742,1.6163364,0.29476758,0.5807386,0.38123865,0.31452914,0.31421954,0.65173918,0.5358112,1.4684175,1.450874,0.99311088,0.12377605,1.814836,1.1685633,2.1130509,-0.19441323,0.73059393,0.59401433,2.0394327,0.46737906,0.64275558,0.50691007,0.59591868,1.2215121,0.7809784,0.28914124,-0.022584248,0.18753379,0.16455766,0.41601568,1.1593518,0.9548887,0.26158131,0.54309888,0.50871874,-0.1743352,0.54278954,0.56688351,0.78922775,0.068846565,0.92756523,0.34263832,1.2106339,0.59313603,0.70370874,2.1667159,0.91899571,1.3971093,0.99292711,0.59782907,0.98308038,1.3084559,0.55686579,0.73543754,0.41500979,0.43707074,1.2259204,0.58127681,2.6890171,0.19767692,0.17950028,0.073124179
84,0.50205548,0.1476469,0.31664616,1.1688741,0.64865752,0.40473265,1.2050062,0.59824137,0.32800826,1.668206,0.48223006,0.27482721,-0.70630453,0.98754646,0.50112303,2.2487902,0.31930911,0.6303957,1.0880765,0.5264121,-0.36808017,0.08725314,0.47041178,1.3510633,0.47527619,0.6692266,1.1949282,0.20303954,0.46679299,0.15058441,-0.15738917,0.65656714,1.2571379,0.18824682,0.5347352,2.0412979,0.58597594,0.99970742,1.6163364,0.29476758,0.5807386,0.38123865,0.31452914,0.31421954,0.65173918,0.5358112,1.4684175,1.450874,0.99311088,0.12377605,1.814836,1.1685633,2.1130509,-0.19441323,0.73059393,0.59401433,2.0394327,0.46737906,0.64275558,0.50691007,0.59591868,1.2215121,0.7809784,0.28914124,-0.022584248,0.18753379,0.16455766,0.41601568,1.1593518,0.9548887,0.26158131,0.54309888,0.50871874,-0.1743352,0.54278954,0.56688351,0.78922775,0.068846565,0.92756523,0.34263832,1.2106339,0.59313603,0.70370874,2.1667159,0.91899571,1.3971093,0.99292711,0.59782907,0.98308038,1.3084559,0.55686579,0.73543754,0.41500979,0.43707074,1.2259204,0.58127681,2.6890171,0.19767692,0.17950028,0.073124179
85,0.50205548,0.1476469,0.31664616,1.1688741,0.64865752,0.40473265,1.2050062,0.59824137,0.32800826,1.668206,0.48223006,0.27482721,-0.70630453,0.98754646,0.50112303,2.2487902,0.31930911,0.6303957,1.0880765,0.5264121,-0.36808017,0.08725314,0.47041178,1.3510633,0.47527619,0.6692266,1.1949282,0.20303954,0.46679299,0.15058441,-0.15738917,0.65656714,1.2571379,0.18824682,0.5347352,2.0412979,0.58597594,0.99970742,1.6163364,0.29476758,0.5807386,0.38123865,0.31452914,0.31421954,0.65173918,0.5358112,1.4684175,1.450874,0.99311088,0.12377605,1.814836,1.1685633,2.1130509,-0.19441323,0.73059393,0.59401433,2.0394327,0.46737906,0.64275558,0.50691007,0.59591868,1.2215121,0.7809784,0.28914124,-0.022584248,0.18753379,0.16455766,0.41601568,1.1593518,0.9548887,0.26158131,0.54309888,0.50871874,-0.1743352,0.54278954,0.56688351,0.78922775,0.068846565,0.92756523,0.34263832,1.2106339,0.59313603,0.70370874,2.1667159,0.91899571,1.3971093,0.99292711,0.59782907,0.98308038,1.3084559,0.55686579,0.73543754,0.41500979,0.43707074,1.2259204,0.58127681,2.6890171,0.19767692,0.17950028,0.073124179
86,0.50205548,0.1476469,0.31664616,1.1688741,0.64865752,0.40473265,1.2050062,0.59824137,0.32800826,1.668206,0.48223006,0.27482721,-0.70630453,0.98754646,0.50112303,2.2487902,0.31930911,0.6303957,1.0880765,0.5264121,-0.36808017,0.08725314,0.47041178,1.3510633,0.47527619,0.6692266,1.1949282,0.20303954,0.46679299,0.15058441,-0.15738917,0.65656714,1.2571379,0.18824682,0.5347352,2.0412979,0.58597594,0.99970742,1.6163364,0.29476758,0.5807386,0.38123865,0.31452914,0.31421954,0.65173918,0.5358112,1.4684175,1.450874,0.99311088,0.12377605,1.814836,1.1685633,2.1130509,-0.19441323,0.73059393,0.59401433,2.0394327,0.46737906,0.64275558,0.50691007,0.59591868,1.2215121,0.7809784,0.28914124,-0.022584248,0.18753379,0.16455766,0.41601568,1.1593518,0.9548887,0.26158131,0.54309888,0.50871874,-0.1743352,0.54278954,0.56688351,0.78922775,0.068846565,0.92756523,0.34263832,1.2106339,0.59313603,0.70370874,2.1667159,0.91899571,1.3971093,0.99292711,0.59782907,0.98308038,1.3084559,0.55686579,0.73543754,0.41500979,0.43707074,1.2259204,0.58127681,2.6890171,0.19767692,0.17950028,0.073124179
87,0.50205548,0.1476469,0.31664616,1.1688741,0.64865752,0.40473265,1.2050062,0.59824137,0.32800826,1.668206,0.48223006,0.27482721,-0.70630453,0.98754646,0.50112303,2.2487902,0.31930911,0.6303957,1.0880765,0.5264121,-0.36808017,0.08725314,0.47041178,1.3510633,0.47527619,0.6692266,1.1949282,0.20303954,0.46679299,0.15058441,-0.15738917,0.65656714,1.2571379,0.18824682,0.5347352,2.0412979,0.58597594,0.99970742,1.6163364,0.29476758,0.5807386,0.38123865,0.31452914,0.31421954,0.65173918,0.5358112,1.4684175,1.450874,0.99311088,0.12377605,1.814836,1.1685633,2.1130509,-0.19441323,0.73059393,0.59401433,2.0394327,0.46737906,0.64275558,0.50691007,0.59591868,1.2215121,0.7809784,0.28914124,-0.022584248,0.18753379,0.16455766,0.41601568,1.1593518,0.9548887,0.26158131,0.54309888,0.50871874,-0.1743352,0.54278954,0.56688351,0.78922775,0.068846565,0.92756523,0.34263832,1.2106339,0.59313603,0.70370874,2.1667159,0.91899571,1.3971093,0.99292711,0.59782907,0.98308038,1.3084559,0.55686579,0.73543754,0.41500979,0.43707074,1.2259204,0.58127681,2.6890171,0.19767692,0.17950028,0.073124179
88,0.50205548,0.1476469,0.31664616,1.1688741,0.64865752,0.40473265,1.2050062,0.59824137,0.32800826,1.668206,0.48223006,0.27482721,-0.70630453,0.98754646,0.50112303,2.2487902,0.31930911,0.6303957,1.0880765,0.5264121,-0.36808017,0.08725314,0.47041178,1.3510633,0.47527619,0.6692266,1.1949282,0.20303954,0.46679299,0.15058441,-0.15738917,0.65656714,1.2571379,0.18824682,0.5347352,2.0412979,0.58597594,0.99970742,1.6163364,0.29476758,0.5807386,0.38123865,0.31452914,0.31421954,0.65173918,0.5358112,1.4684175,1.450874,0.99311088,0.12377605,1.814836,1.1685633,2.1130509,-0.19441323,0.73059393,0.59401433,2.0394327,0.46737906,0.64275558,0.50691007,0.59591868,1.2215121,0.7809784,0.28914124,-0.022584248,0.18753379,0.16455766,0.41601568,1.1593518,0.9548887,0.26158131,0.54309888,0.50871874,-0.1743352,0.54278954,0.56688351,0.78922775,0.068846565,0.92756523,0.34263832,1.2106339,0.59313603,0.70370874,2.1667159,0.91899571,1.3971093,0.99292711,0.59782907,0.98308038,1.3084559,0.55686579,0.73543754,0.41500979,0.43707074,1.2259204,0.58127681,2.6890171,0.19767692,0.17950028,0.073124179
89,0.50205548,0.1476469,0.31664616,1.1688741,0.64865752,0.40473265,1.2050062,0.59824137,0.32800826,1.668206,0.48223006,0.27482721,-0.70630453,0.98754646,0.50112303,2.2487902,0.31930911,0.6303957,1.0880765,0.5264121,-0.36808017,0.08725314,0.47041178,1.3510633,0.47527619,0.6692266,1.1949282,0.20303954,0.46679299,0.15058441,-0.15738917,0.65656714,1.2571379,0.18824682,0.5347352,2.0412979,0.58597594,0.99970742,1.6163364,0.29476758,0.5807386,0.38123865,0.31452914,0.31421954,0.65173918,0.5358112,1.4684175,1.450874,0.99311088,0.12377605,1.814836,1.1685633,2.1130509,-0.19441323,0.73059393,0.59401433,2.0394327,0.46737906,0.64275558,0.50691007,0.59591868,1.2215121,0.7809784,0.28914124,-0.022584248,0.18753379,0.16455766,0.41601568,1.1593518,0.9548887,0.26158131,0.54309888,0.50871874,-0.1743352,0.54278954,0.56688351,0.78922775,0.068846565,0.92756523,0.34263832,1.2106339,0.59313603,0.70370874,2.1667159,0.91899571,1.3971093,0.99292711,0.59782907,0.98308038,1.3084559,0.55686579,0.73543754,0.41500979,0.43707074,1.2259204,0.58127681,2.6890171,0.19767692,0.17950028,0.073124179
90,0.50205548,0.1476469,0.31664616,1.1688741,0.64865752,0.40473265,1.2050062,0.59824137,0.32800826,1.668206,0.48223006,0.27482721,-0.70630453,0.98754646,0.50112303,2.2487902,0.31930911,0.6303957,1.0880765,0.5264121,-0.36808017,0.08725314,0.47041178,1.3510633,0.47527619,0.6692266,1.1949282,0.20303954,0.46679299,0.15058441,-0.15738917,0.65656714,1.2571379,0.18824682,0.5347352,2.0412979,0.58597594,0.99970742,1.6163364,0.29476758,0.5807386,0.38123865,0.31452914,0.31421954,0.65173918,0.5358112,1.4684175,1.450874,0.99311088,0.12377605,1.814836,1.1685633,2.1130509,-0.19441323,0.73059393,0.59401433,2.0394327,0.46737906,0.64275558,0.50691007,0.59591868,1.2215121,0.7809784,0.28914124,-0.022584248,0.18753379,0.16455766,0.41601568,1.1593518,0.9548887,0.26158131,0.54309888,0.50871874,-0.1743352,0.54278954,0.56688351,0.78922775,0.068846565,0.92756523,0.34263832,1.2106339,0.59313603,0.70370874,2.1667159,0.91899571,1.3971093,0.99292711,0.59782907,0.98308038,1.3084559,0.55686579,0.73543754,0.41500979,0.43707074,1.2259204,0.58127681,2.6890171,0.19767692,0.17950028,0.073124179
91,0.50205548,0.1476469,0.31664616,1.1688741,0.64865752,0.40473265,1.2050062,0.59824137,0.32800826,1.668206,0.48223006,0.27482721,-0.70630453,0.98754646,0.50112303,2.2487902,0.31930911,0.6303957,1.0880765,0.5264121,-0.36808017,0.08725314,0.47041178,1.3510633,0.47527619,0.6692266,1.1949282,0.20303954,0.46679299,0.15058441,-0.15738917,0.65656714,1.2571379,0.18824682,0.5347352,2.0412979,0.58597594,0.99970742,1.6163364,0.29476758,0.5807386,0.38123865,0.31452914,0.31421954,0.65173918,0.5358112,1.4684175,1.450874,0.99311088,0.12377605,1.814836,1.1685633,2.1130509,-0.19441323,0.73059393,0.59401433,2.0394327,0.46737906,0.64275558,0.50691007,0.59591868,1.2215121,0.7809784,0.28914124,-0.022584248,0.18753379,0.16455766,0.41601568,1.1593518,0.9548887,0.26158131,0.54309888,0.50871874,-0.1743352,0.54278954,0.56688351,0.78922775,0.068846565,0.92756523,0.34263832,1.2106339,0.59313603,0.70370874,2.1667159,0.91899571,1.3971093,0.99292711,0.59782907,0.98308038,1.3084559,0.55686579,0.73543754,0.41500979,0.43707074,1.2259204,0.58127681,2.6890171,0.19767692,0.17950028,0.073124179
92,0.50205548,0.1476469,0.31664616,1.1688741,0.64865752,0.40473265,1.2050062,0.59824137,0.32800826,1.668206,0.48223006,0.27482721,-0.70630453,0.98754646,0.50112303,2.2487902,0.31930911,0.6303957,1.0880765,0.5264121,-0.36808017,0.08725314,0.47041178,1.3510633,0.47527619,0.6692266,1.1949282,0.20303954,0.46679299,0.15058441,-0.15738917,0.65656714,1.2571379,0.18824682,0.5347352,2.0412979,0.58597594,0.99970742,1.6163364,0.29476758,0.5807386,0.38123865,0.31452914,0.31421954,0.65173918,0.5358112,1.4684175,1.450874,0.99311088,0.12377605,1.814836,1.1685633,2.1130509,-0.19441323,0.73059393,0.59401433,2.0394327,0.46737906,0.64275558,0.50691007,0.59591868,1.2215121,0.7809784,0.28914124,-0.022584248,0.18753379,0.16455766,0.41601568,1.1593518,0.9548887,0.26158131,0.54309888,0.50871874,-0.1743352,0.54278954,0.56688351,0.78922775,0.068846565,0.92756523,0.34263832,1.2106339,0.59313603,0.70370874,2.1667159,0.91899571,1.3971093,0.99292711,0.59782907,0.98308038,1.3084559,0.55686579,0.73543754,0.41500979,0.43707074,1.2259204,0.58127681,2.6890171,0.19767692,0.17950028,0.073124179
93,0.50205548,0.1476469,0.31664616,1.1688741,0.64865752,0.40473265,1.2050062,0.59824137,0.32800826,1.668206,0.48223006,0.27482721,-0.70630453,0.98754646,0.50112303,2.2487902,0.31930911,0.6303957,1.0880765,0.5264121,-0.36808017,0.08725314,0.47041178,1.3510633,0.47527619,0.6692266,1.1949282,0.20303954,0.46679299,0.15058441,-0.15738917,0.65656714,1.2571379,0.18824682,0.5347352,2.0412979,0.58597594,0.99970742,1.6163364,0.29476758,0.5807386,0.38123865,0.31452914,0.31421954,0.65173918,0.5358112,1.4684175,1.450874,0.99311088,0.12377605,1.814836,1.1685633,2.1130509,-0.19441323,0.73059393,0.59401433,2.0394327,0.46737906,0.64275558,0.50691007,0.59591868,1.2215121,0.7809784,0.28914124,-0.022584248,0.18753379,0.16455766,0.41601568,1.1593518,0.9548887,0.26158131,0.54309888,0.50871874,-0.1743352,0.54278954,0.56688351,0.78922775,0.068846565,0.92756523,0.34263832,1.2106339,0.59313603,0.70370874,2.1667159,0.91899571,1.3971093,0.99292711,0.59782907,0.98308038,1.3084559,0.55686579,0.73543754,0.41500979,0.43707074,1.2259204,0.58127681,2.6890171,0.19767692,0.17950028,0.073124179
94,0.50205548,0.1476469,0.31664616,1.1688741,0.64865752,0.40473265,1.2050062,0.59824137,0.32800826,1.668206,0.48223006,0.27482721,-0.70630453,0.98754646,0.50112303,2.2487902,0.31930911,0.6303957,1.0880765,0.5264121,-0.36808017,0.08725314,0.47041178,1.3510633,0.47527619,0.6692266,1.1949282,0.20303954,0.46679299,0.15058441,-0.15738917,0.65656714,1.2571379,0.18824682,0.5347352,2.0412979,0.58597594,0.99970742,1.6163364,0.29476758,0.5807386,0.38123865,0.31452914,0.31421954,0.65173918,0.5358112,1.4684175,1.450874,0.99311088,0.12377605,1.814836,1.1685633,2.1130509,-0.19441323,0.73059393,0.59401433,2.0394327,0.46737906,0.64275558,0.50691007,0.59591868,1.2215121,0.7809784,0.28914124,-0.022584248,0.18753379,0.16455766,0.41601568,1.1593518,0.9548887,0.26158131,0.54309888,0.50871874,-0.1743352,0.54278954,0.56688351,0.78922775,0.068846565,0.92756523,0.34263832,1.2106339,0.59313603,0.70370874,2.1667159,0.91899571,1.3971093,0.99292711,0.59782907,0.98308038,1.3084559,0.55686579,0.73543754,0.41500979,0.43707074,1.2259204,0.58127681,2.6890171,0.19767692,0.17950028,0.073124179
95,0.50205548,0.1476469,0.31664616,1.1688741,0.64865752,0.40473265,1.2050062,0.59824137,0.32800826,1.668206,0.48223006,0.27482721,-0.70630453,0.98754646,0.50112303,2.2487902,0.31930911,0.6303957,1.0880765,0.5264121,-0.36808017,0.08725314,0.47041178,1.3510633,0.47527619,0.6692266,1.1949282,0.20303954,0.46679299,0.15058441,-0.15738917,0.65656714,1.2571379,0.18824682,0.5347352,2.0412979,0.58597594,0.99970742,1.6163364,0.29476758,0.5807386,0.38123865,0.31452914,0.31421954,0.65173918,0.5358112,1.4684175,1.450874,0.99311088,0.12377605,1.814836,1.1685633,2.1130509,-0.19441323,0.73059393,0.59401433,2.0394327,0.46737906,0.64275558,0.50691007,0.59591868,1.2215121,0.7809784,0.28914124,-0.022584248,0.18753379,0.16455766,0.41601568,1.1593518,0.9548887,0.26158131,0.54309888,0.50871874,-0.1743352,0.54278954,0.56688351,0.78922775,0.068846565,0.92756523,0.34263832,1.2106339,0.59313603,0.70370874,2.1667159,0.91899571,1.3971093,0.99292711,0.59782907,0.98308038,1.3084559,0.55686579,0.73543754,0.41500979,0.43707074,1.2259204,0.58127681,2.6890171,0.19767692,0.17950028,0.073124179
96,0.50205548,0.1476469,0.31664616,1.1688741,0.64865752,0.40473265,1.2050062,0.59824137,0.32800826,1.668206,0.48223006,0.27482721,-0.70630453,0.98754646,0.50112303,2.2487902,0.31930911,0.6303957,1.0880765,0.5264121,-0.36808017,0.08725314,0.47041178,1.3510633,0.47527619,0.6692266,1.1949282,0.20303954,0.46679299,0.15058441,-0.15738917,0.65656714,1.2571379,0.18824682,0.5347352,2.0412979,0.58597594,0.99970742,1.6163364,0.29476758,0.5807386,0.38123865,0.31452914,0.31421954,0.65173918,0.5358112,1.4684175,1.450874,0.99311088,0.12377605,1.814836,1.1685633,2.1130509,-0.19441323,0.73059393,0.59401433,2.0394327,0.46737906,0.64275558,0.50691007,0.59591868,1.2215121,0.7809784,0.28914124,-0.022584248,0.18753379,0.16455766,0.41601568,1.1593518,0.9548887,0.26158131,0.54309888,0.50871874,-0.1743352,0.54278954,0.56688351,0.78922775,0.068846565,0.92756523,0.34263832,1.2106339,0.59313603,0.70370874,2.1667159,0.91899571,1.3971093,0.99292711,0.59782907,0.98308038,1.3084559,0.55686579,0.73543754,0.41500979,0.43707074,1.2259204,0.58127681,2.6890171,0.19767692,0.17950028,0.073124179
